time,ecg
0.0,0.003
0.25,-0.0239
0.5,-0.0086
0.75,0.0523
1.0,-0.0063
1.25,0.0674
1.5,0.0141
1.75,0.0069
2.0,0.0093
2.25,0.1178
2.5,0.0188
2.75,0.0022
3.0,0.1149
3.25,-0.003
3.5,0.0188
3.75,-0.0037
4.0,0.0008
4.25,0.0558
4.5,0.0016
4.75,-0.031
5.0,-0.0112
5.25,0.1206
5.5,-0.1295
5.75,-0.0024
6.0,0.0006
6.25,0.0194
6.5,-0.0108
6.75,0.1418
7.0,-0.0183
7.25,0.0164
7.5,-0.0094
7.75,0.2941
8.0,0.005
8.25,0.0878
8.5,0.1601
8.75,0.0082
9.0,0.006
9.25,0.0732
9.5,0.0024
9.75,-0.0111
10.0,-0.0012
10.25,-0.0133
10.5,-0.036
10.75,0.0038
11.0,-0.0162
11.25,-0.0049
11.5,0.1147
11.75,-0.0023
12.0,0.0465
12.25,-0.0091
12.5,0.1418
12.75,0.0837
13.0,0.1162
13.25,-0.0091
13.5,-0.0155
13.75,0.0129
14.0,0.7481
14.25,0.2378
14.5,-0.0046
14.75,0.1493
15.0,-0.003
15.25,-0.015
15.5,0.8225
15.75,-0.0218
16.0,0.0068
16.25,0.0034
16.5,0.0847
16.75,-0.0025
17.0,0.1288
17.25,0.1009
17.5,-0.0043
17.75,0.0737
18.0,0.1493
18.25,0.0405
18.5,0.1283
18.75,-0.0096
19.0,-0.0069
19.25,0.0035
19.5,0.0119
19.75,-0.0099
20.0,0.0244
20.25,0.0768
20.5,0.0616
20.75,0.5502
21.0,0.0894
21.25,-0.0095
21.5,-0.0119
21.75,-0.0049
22.0,-0.0032
22.25,-0.0295
22.5,-0.0143
22.75,-0.023
23.0,-0.021
23.25,-0.0061
23.5,0.0272
23.75,0.0036
24.0,-0.0006
24.25,0.4896
24.5,0.0928
24.75,0.0671
25.0,0.0607
25.25,0.1264
25.5,0.0298
25.75,0.1286
26.0,0.7155
26.25,0.1573
26.5,0.0291
26.75,-0.0343
27.0,0.003
27.25,0.0022
27.5,0.0876
27.75,0.02
28.0,-0.0088
28.25,0.107
28.5,-0.0049
28.75,-0.125
29.0,0.1288
29.25,0.0254
29.5,0.0063
29.75,-0.008
30.0,0.1439
30.25,0.7204
30.5,0.0653
30.75,0.0942
31.0,-0.0293
31.25,0.1151
31.5,-0.0076
31.75,0.007
32.0,0.1219
32.25,0.1241
32.5,0.0088
32.75,0.009
33.0,0.097
33.25,0.1268
33.5,0.0016
33.75,0.1381
34.0,0.183
34.25,0.0074
34.5,0.7473
34.75,0.0136
35.0,-0.0028
35.25,0.0104
35.5,0.1395
35.75,0.0825
36.0,0.0007
36.25,-0.0044
36.5,0.0118
36.75,-0.0098
37.0,0.0138
37.25,0.0001
37.5,0.7472
37.75,0.6182
38.0,0.1119
38.25,0.0178
38.5,0.0351
38.75,0.5512
39.0,-0.0101
39.25,-0.0556
39.5,0.0314
39.75,-0.0336
40.0,-0.0165
40.25,0.5626
40.5,0.1002
40.75,0.0687
41.0,-0.0023
41.25,-0.0205
41.5,-0.0094
41.75,0.0025
42.0,-0.0068
42.25,0.043
42.5,-0.0078
42.75,0.7642
43.0,0.0775
43.25,0.0017
43.5,0.0542
43.75,-0.02
44.0,0.003
44.25,-0.0
44.5,-0.0086
44.75,0.0762
45.0,-0.0489
45.25,-0.0028
45.5,0.0102
45.75,-0.0144
46.0,-0.0185
46.25,0.0241
46.5,0.0023
46.75,0.0078
47.0,0.0935
47.25,-0.0113
47.5,-0.0068
47.75,0.0045
48.0,-0.011
48.25,0.1135
48.5,-0.0178
48.75,0.0217
49.0,0.0185
49.25,-0.0168
49.5,0.0331
49.75,-0.0022
50.0,-0.0282
50.25,0.065
50.5,0.1387
50.75,0.0111
51.0,0.0835
51.25,0.099
51.5,0.7238
51.75,0.1507
52.0,0.7925
52.25,-0.0158
52.5,0.0432
52.75,0.0461
53.0,-0.0141
53.25,0.0792
53.5,0.0267
53.75,0.0011
54.0,-0.0183
54.25,0.1297
54.5,0.1195
54.75,-0.0122
55.0,-0.016
55.25,0.4105
55.5,-0.08
55.75,0.1585
56.0,-0.0012
56.25,0.0396
56.5,0.1089
56.75,0.0561
57.0,-0.0103
57.25,-0.0733
57.5,0.0595
57.75,0.0108
58.0,0.001
58.25,0.014
58.5,0.0207
58.75,0.2232
59.0,-0.019
59.25,0.0119
59.5,0.0061
59.75,0.068
60.0,0.0779
60.25,0.01
60.5,-0.0218
60.75,0.06
61.0,-0.0053
61.25,-0.0084
61.5,-0.0017
61.75,-0.0014
62.0,-0.0106
62.25,0.0102
62.5,-0.0367
62.75,-0.0227
63.0,0.1108
63.25,-0.0071
63.5,0.081
63.75,0.0035
64.0,0.0626
64.25,-0.005
64.5,-0.0011
64.75,0.018
65.0,-0.0013
65.25,0.0828
65.5,0.0286
65.75,-0.0068
66.0,0.2832
66.25,-0.0216
66.5,0.0094
66.75,0.0039
67.0,0.0074
67.25,0.1428
67.5,0.0137
67.75,-0.0033
68.0,0.151
68.25,0.0096
68.5,0.016
68.75,-0.0034
69.0,0.0865
69.25,-0.0146
69.5,-0.0068
69.75,-0.0111
70.0,0.0176
70.25,0.0008
70.5,-0.02
70.75,0.0891
71.0,-0.0097
71.25,0.0011
71.5,0.012
71.75,-0.1237
72.0,-0.0076
72.25,0.0044
72.5,-0.0016
72.75,0.1266
73.0,0.0154
73.25,0.0025
73.5,0.0238
73.75,0.0173
74.0,-0.0029
74.25,0.0983
74.5,-0.0035
74.75,0.0037
75.0,0.0239
75.25,-0.0166
75.5,-0.0092
75.75,-0.0006
76.0,-0.0113
76.25,0.1214
76.5,0.0254
76.75,0.0059
77.0,-0.0232
77.25,0.09
77.5,0.0126
77.75,0.6713
78.0,-0.0031
78.25,-0.007
78.5,0.1473
78.75,0.0801
79.0,0.1181
79.25,0.0147
79.5,0.1064
79.75,0.0408
80.0,0.0333
80.25,0.2448
80.5,0.0704
80.75,0.0163
81.0,-0.007
81.25,0.012
81.5,0.0582
81.75,0.0017
82.0,0.0013
82.25,0.0714
82.5,0.015
82.75,0.0198
83.0,0.0147
83.25,0.0151
83.5,0.0147
83.75,-0.0028
84.0,-0.016
84.25,0.1435
84.5,-0.02
84.75,-0.0039
85.0,-0.004
85.25,0.0073
85.5,0.026
85.75,0.0001
86.0,0.7836
86.25,0.0608
86.5,0.0072
86.75,0.7796
87.0,0.0635
87.25,0.01
87.5,0.0165
87.75,0.1532
88.0,0.0036
88.25,0.8039
88.5,0.0809
88.75,0.7521
89.0,0.1602
89.25,0.067
89.5,0.0006
89.75,-0.1018
90.0,-0.0044
90.25,-0.0577
90.5,-0.0034
90.75,0.0138
91.0,0.0445
91.25,0.0105
91.5,0.0087
91.75,0.1412
92.0,0.1026
92.25,0.1961
92.5,0.0021
92.75,0.0183
93.0,0.001
93.25,0.0186
93.5,0.0513
93.75,-0.005
94.0,0.0062
94.25,0.0176
94.5,0.134
94.75,0.0033
95.0,0.0567
95.25,-0.0269
95.5,0.0146
95.75,-0.0247
96.0,-0.0038
96.25,0.0028
96.5,0.0046
96.75,0.1529
97.0,0.6211
97.25,0.0333
97.5,0.1093
97.75,0.0075
98.0,0.152
98.25,0.0008
98.5,0.0114
98.75,0.1503
99.0,0.013
99.25,0.017
99.5,0.0172
99.75,-0.011
100.0,0.0014
100.25,-0.0161
100.5,-0.0058
100.75,-0.0045
101.0,-0.0068
101.25,0.1139
101.5,0.0075
101.75,0.0061
102.0,0.1561
102.25,0.1181
102.5,0.0954
102.75,-0.0003
103.0,0.0303
103.25,-0.0062
103.5,0.0552
103.75,0.0244
104.0,-0.0008
104.25,0.0036
104.5,0.0281
104.75,-0.0022
105.0,0.1468
105.25,-0.0014
105.5,-0.0248
105.75,-0.0702
106.0,-0.0133
106.25,0.0416
106.5,-0.0071
106.75,0.1202
107.0,-0.0013
107.25,-0.0443
107.5,0.0128
107.75,-0.0045
108.0,0.1219
108.25,-0.0168
108.5,-0.0205
108.75,0.0012
109.0,-0.0029
109.25,0.0081
109.5,0.1052
109.75,-0.0082
110.0,0.0221
110.25,0.1285
110.5,-0.0365
110.75,0.0174
111.0,0.0938
111.25,-0.0913
111.5,0.0862
111.75,-0.0058
112.0,-0.0275
112.25,0.0444
112.5,-0.0197
112.75,0.0117
113.0,0.0021
113.25,0.0366
113.5,-0.1235
113.75,0.0011
114.0,0.0052
114.25,-0.0028
114.5,0.0035
114.75,-0.0034
115.0,-0.0004
115.25,0.001
115.5,0.1142
115.75,-0.0118
116.0,0.014
116.25,0.0047
116.5,0.0179
116.75,0.0083
117.0,-0.0132
117.25,0.0094
117.5,0.0458
117.75,0.0716
118.0,0.1014
118.25,0.0071
118.5,0.1099
118.75,-0.0056
119.0,-0.1005
119.25,0.0171
119.5,0.1516
119.75,0.006
120.0,0.0545
120.25,-0.0658
120.5,0.0102
120.75,0.0113
121.0,0.1409
121.25,0.0996
121.5,-0.0041
121.75,-0.1175
122.0,-0.0266
122.25,-0.0065
122.5,0.1299
122.75,0.0746
123.0,0.581
123.25,-0.0067
123.5,0.0322
123.75,0.0891
124.0,-0.0146
124.25,0.0119
124.5,0.0033
124.75,0.1356
125.0,0.0837
125.25,0.2001
125.5,0.0104
125.75,0.0361
126.0,0.0045
126.25,-0.0005
126.5,-0.0191
126.75,-0.0495
127.0,0.0008
127.25,0.0693
127.5,-0.0271
127.75,0.0424
128.0,-0.008
128.25,0.0683
128.5,0.0915
128.75,0.1437
129.0,0.0997
129.25,0.057
129.5,0.0791
129.75,0.0381
130.0,0.0062
130.25,0.0322
130.5,0.0294
130.75,-0.0075
131.0,0.021
131.25,0.0031
131.5,0.5573
131.75,0.1126
132.0,-0.0963
132.25,0.0185
132.5,-0.0002
132.75,-0.0083
133.0,-0.0279
133.25,0.022
133.5,0.0191
133.75,0.0056
134.0,0.4956
134.25,-0.0122
134.5,0.6119
134.75,0.008
135.0,0.0686
135.25,0.0105
135.5,0.0071
135.75,0.0054
136.0,0.0354
136.25,0.0098
136.5,0.0207
136.75,-0.0193
137.0,0.7361
137.25,0.0206
137.5,0.0581
137.75,0.0
138.0,0.1277
138.25,0.1462
138.5,0.0062
138.75,0.0187
139.0,-0.0199
139.25,0.0568
139.5,0.0047
139.75,0.159
140.0,0.7993
140.25,0.0391
140.5,-0.0257
140.75,0.1223
141.0,0.0669
141.25,-0.0073
141.5,0.003
141.75,0.0066
142.0,-0.0106
142.25,0.0805
142.5,0.1348
142.75,0.0119
143.0,0.0114
143.25,-0.0666
143.5,0.0791
143.75,0.3345
144.0,0.1471
144.25,0.0833
144.5,0.0069
144.75,-0.0455
145.0,0.1175
145.25,0.0459
145.5,0.0162
145.75,-0.0001
146.0,0.0915
146.25,-0.0025
146.5,0.6534
146.75,0.0045
147.0,-0.0079
147.25,0.077
147.5,-0.0034
147.75,0.0534
148.0,0.1483
148.25,0.023
148.5,0.1363
148.75,0.0044
149.0,0.0759
149.25,0.0088
149.5,-0.0053
149.75,-0.0106
150.0,0.009
150.25,0.0021
150.5,0.1211
150.75,0.0635
151.0,0.018
151.25,0.0489
151.5,0.0051
151.75,0.1428
152.0,0.0053
152.25,0.6279
152.5,0.011
152.75,-0.003
153.0,-0.0229
153.25,-0.0324
153.5,-0.0202
153.75,0.01
154.0,0.035
154.25,-0.0543
154.5,0.0031
154.75,-0.015
155.0,0.1403
155.25,0.0331
155.5,0.1358
155.75,-0.0066
156.0,0.0094
156.25,0.7757
156.5,0.1105
156.75,0.0155
157.0,-0.0133
157.25,-0.0098
157.5,0.0791
157.75,-0.0183
158.0,-0.0049
158.25,0.0048
158.5,0.788
158.75,-0.0037
159.0,0.0727
159.25,0.011
159.5,0.0393
159.75,-0.0276
160.0,0.0148
160.25,-0.0101
160.5,0.0068
160.75,-0.0129
161.0,0.1637
161.25,0.6514
161.5,-0.0094
161.75,0.0344
162.0,0.0341
162.25,0.0833
162.5,0.1386
162.75,0.0053
163.0,-0.013
163.25,0.0488
163.5,0.0449
163.75,-0.0242
164.0,0.0115
164.25,-0.0056
164.5,0.8068
164.75,-0.0284
165.0,0.0912
165.25,0.0092
165.5,0.0065
165.75,-0.0141
166.0,0.1389
166.25,-0.0016
166.5,0.0233
166.75,0.1429
167.0,-0.1138
167.25,0.0135
167.5,0.148
167.75,-0.0004
168.0,0.0385
168.25,0.0011
168.5,0.1357
168.75,0.0123
169.0,-0.0059
169.25,-0.0301
169.5,0.0572
169.75,0.0112
170.0,-0.0191
170.25,0.0245
170.5,0.1494
170.75,-0.0155
171.0,0.0012
171.25,0.0702
171.5,-0.0063
171.75,-0.0757
172.0,0.01
172.25,0.0993
172.5,-0.0031
172.75,0.8022
173.0,-0.0049
173.25,0.0645
173.5,-0.0202
173.75,0.0255
174.0,-0.0129
174.25,-0.0056
174.5,0.0125
174.75,0.004
175.0,0.1509
175.25,-0.0046
175.5,0.0124
175.75,0.0075
176.0,0.0501
176.25,-0.0168
176.5,0.0097
176.75,-0.0235
177.0,-0.1236
177.25,-0.0044
177.5,0.113
177.75,0.0042
178.0,0.0335
178.25,0.1356
178.5,0.8086
178.75,0.074
179.0,0.1462
179.25,0.0422
179.5,0.0613
179.75,0.0093
180.0,0.0271
180.25,-0.0081
180.5,-0.1047
180.75,0.1454
181.0,0.0175
181.25,-0.0011
181.5,0.0148
181.75,0.0514
182.0,-0.0071
182.25,0.0062
182.5,-0.0057
182.75,0.0679
183.0,-0.0048
183.25,0.5634
183.5,0.0475
183.75,-0.0188
184.0,0.0613
184.25,0.006
184.5,-0.001
184.75,0.0248
185.0,-0.012
185.25,0.0192
185.5,0.0092
185.75,-0.009
186.0,-0.0055
186.25,0.7214
186.5,0.0255
186.75,-0.0056
187.0,0.0119
187.25,-0.0118
187.5,0.3516
187.75,0.0704
188.0,-0.1053
188.25,0.0103
188.5,-0.0071
188.75,0.0049
189.0,0.0352
189.25,0.012
189.5,-0.014
189.75,-0.0144
190.0,0.0088
190.25,0.5257
190.5,0.1484
190.75,0.069
191.0,0.1012
191.25,-0.1102
191.5,-0.0219
191.75,0.0226
192.0,0.024
192.25,0.093
192.5,0.075
192.75,-0.0154
193.0,0.0468
193.25,-0.0041
193.5,0.0062
193.75,0.0213
194.0,0.0062
194.25,0.0108
194.5,0.0067
194.75,0.1321
195.0,-0.003
195.25,0.0104
195.5,0.0244
195.75,-0.0848
196.0,0.0089
196.25,0.0241
196.5,-0.0052
196.75,0.0017
197.0,-0.0294
197.25,0.0942
197.5,-0.0179
197.75,-0.0048
198.0,0.0941
198.25,-0.0112
198.5,0.5175
198.75,0.1097
199.0,0.0038
199.25,-0.0082
199.5,-0.001
199.75,0.0212
200.0,-0.021
200.25,0.0072
200.5,0.0994
200.75,0.0197
201.0,0.0314
201.25,-0.0212
201.5,0.0163
201.75,-0.0003
202.0,0.0256
202.25,0.002
202.5,0.113
202.75,-0.0056
203.0,-0.0107
203.25,-0.0159
203.5,0.1236
203.75,-0.005
204.0,0.007
204.25,-0.0193
204.5,-0.0685
204.75,0.0162
205.0,0.0134
205.25,0.0547
205.5,-0.0077
205.75,-0.0066
206.0,0.0662
206.25,0.1722
206.5,0.0398
206.75,0.0988
207.0,0.0018
207.25,-0.0111
207.5,0.1351
207.75,-0.0096
208.0,-0.0186
208.25,0.01
208.5,0.0097
208.75,0.0407
209.0,0.0088
209.25,0.1851
209.5,0.0668
209.75,0.1796
210.0,0.0159
210.25,0.061
210.5,0.0055
210.75,-0.0
211.0,0.0064
211.25,0.0026
211.5,-0.0067
211.75,-0.0033
212.0,0.0117
212.25,0.0266
212.5,0.0359
212.75,0.0511
213.0,-0.0376
213.25,0.0625
213.5,-0.0042
213.75,0.0075
214.0,0.0446
214.25,0.07
214.5,0.0201
214.75,-0.0061
215.0,-0.0037
215.25,0.0126
215.5,0.0613
215.75,0.004
216.0,0.102
216.25,0.021
216.5,0.5034
216.75,0.1345
217.0,-0.0018
217.25,0.6573
217.5,0.0695
217.75,0.0063
218.0,0.1568
218.25,0.122
218.5,0.0046
218.75,-0.0006
219.0,0.0058
219.25,0.0273
219.5,0.0684
219.75,-0.0104
220.0,-0.1131
220.25,-0.0846
220.5,0.0013
220.75,-0.0039
221.0,-0.0521
221.25,0.0099
221.5,0.0747
221.75,-0.0098
222.0,0.0028
222.25,-0.0163
222.5,-0.0041
222.75,0.0591
223.0,0.1573
223.25,-0.0092
223.5,0.0124
223.75,-0.101
224.0,-0.0371
224.25,0.0448
224.5,-0.0468
224.75,0.0394
225.0,0.128
225.25,0.0023
225.5,0.0072
225.75,-0.0243
226.0,-0.0022
226.25,0.0175
226.5,0.0062
226.75,0.3588
227.0,-0.0086
227.25,0.1279
227.5,-0.006
227.75,0.009
228.0,0.0037
228.25,0.7342
228.5,0.0202
228.75,0.7733
229.0,-0.0353
229.25,0.0113
229.5,-0.0032
229.75,0.1271
230.0,-0.0067
230.25,0.0053
230.5,0.0514
230.75,0.0639
231.0,0.0459
231.25,0.1045
231.5,0.0229
231.75,0.0157
232.0,-0.0113
232.25,0.01
232.5,-0.1236
232.75,-0.0109
233.0,0.0003
233.25,0.0239
233.5,-0.0073
233.75,-0.0151
234.0,0.1287
234.25,0.019
234.5,0.1088
234.75,0.0091
235.0,0.0092
235.25,0.0192
235.5,-0.0041
235.75,0.0501
236.0,0.0637
236.25,-0.0067
236.5,-0.0065
236.75,-0.0099
237.0,-0.0045
237.25,-0.0102
237.5,-0.0021
237.75,0.0167
238.0,-0.0163
238.25,0.0141
238.5,0.0058
238.75,-0.014
239.0,0.0802
239.25,-0.0039
239.5,0.2016
239.75,-0.0109
240.0,0.0099
240.25,-0.0156
240.5,0.1155
240.75,0.0049
241.0,-0.0236
241.25,0.0024
241.5,0.0077
241.75,0.1203
242.0,0.0318
242.25,-0.0062
242.5,0.0808
242.75,0.002
243.0,0.0071
243.25,0.006
243.5,0.008
243.75,-0.009
244.0,-0.0124
244.25,-0.0103
244.5,0.0133
244.75,0.0506
245.0,0.156
245.25,0.0337
245.5,0.0084
245.75,0.0041
246.0,0.0651
246.25,-0.0105
246.5,0.0806
246.75,0.124
247.0,0.0096
247.25,0.0043
247.5,0.0934
247.75,0.0133
248.0,0.0465
248.25,0.1567
248.5,0.0645
248.75,0.0571
249.0,-0.0038
249.25,0.1374
249.5,0.0082
249.75,0.1388
250.0,0.0254
250.25,-0.0198
250.5,0.1367
250.75,0.0119
251.0,0.0025
251.25,-0.0005
251.5,0.0469
251.75,0.0008
252.0,-0.0104
252.25,-0.0033
252.5,0.0498
252.75,0.0178
253.0,0.0046
253.25,-0.0038
253.5,0.0125
253.75,0.0267
254.0,0.0094
254.25,-0.0114
254.5,0.1089
254.75,0.1569
255.0,0.0428
255.25,0.1265
255.5,0.0284
255.75,0.0869
256.0,0.1438
256.25,-0.0027
256.5,-0.0138
256.75,0.0054
257.0,0.0174
257.25,-0.0061
257.5,0.005
257.75,-0.004
258.0,0.0027
258.25,0.3374
258.5,0.0002
258.75,0.0178
259.0,0.0034
259.25,0.5234
259.5,-0.0117
259.75,0.1516
260.0,-0.0022
260.25,0.0636
260.5,0.0027
260.75,-0.0311
261.0,0.6821
261.25,-0.0098
261.5,-0.0311
261.75,0.0053
262.0,0.0993
262.25,0.0007
262.5,0.09
262.75,0.0738
263.0,0.0102
263.25,0.0084
263.5,0.0051
263.75,-0.0029
264.0,-0.0059
264.25,0.1244
264.5,-0.0095
264.75,-0.0944
265.0,0.0785
265.25,-0.0158
265.5,-0.0054
265.75,-0.0166
266.0,-0.02
266.25,0.0575
266.5,-0.0072
266.75,-0.0491
267.0,0.172
267.25,0.1481
267.5,-0.0281
267.75,0.0094
268.0,0.016
268.25,0.0046
268.5,-0.0029
268.75,-0.0245
269.0,-0.0121
269.25,-0.0032
269.5,0.0098
269.75,0.1365
270.0,0.016
270.25,0.126
270.5,0.0046
270.75,0.0376
271.0,0.0032
271.25,-0.1397
271.5,0.0839
271.75,-0.0137
272.0,-0.0028
272.25,0.0129
272.5,0.7892
272.75,0.7575
273.0,0.0586
273.25,0.0286
273.5,0.0042
273.75,-0.0535
274.0,0.0032
274.25,0.0006
274.5,-0.0448
274.75,0.0077
275.0,0.0542
275.25,0.0013
275.5,0.0709
275.75,0.0151
276.0,0.0117
276.25,0.0067
276.5,0.0009
276.75,-0.1015
277.0,0.0153
277.25,-0.0105
277.5,0.0017
277.75,0.013
278.0,-0.0029
278.25,0.0934
278.5,0.1248
278.75,0.1367
279.0,-0.0082
279.25,0.3879
279.5,0.018
279.75,0.0086
280.0,0.1004
280.25,0.0032
280.5,0.0648
280.75,0.0045
281.0,-0.0176
281.25,0.1219
281.5,0.0007
281.75,0.1522
282.0,0.0239
282.25,-0.0001
282.5,0.7746
282.75,-0.0041
283.0,-0.0149
283.25,0.1267
283.5,0.0733
283.75,0.0003
284.0,0.041
284.25,-0.0053
284.5,0.0646
284.75,0.1442
285.0,0.0184
285.25,0.0224
285.5,-0.0039
285.75,0.0836
286.0,0.071
286.25,-0.0092
286.5,0.0055
286.75,0.011
287.0,-0.0001
287.25,0.0128
287.5,0.0621
287.75,-0.0092
288.0,0.0045
288.25,-0.0069
288.5,-0.0148
288.75,-0.0094
289.0,-0.0
289.25,0.0534
289.5,0.0091
289.75,0.148
290.0,0.0959
290.25,0.0772
290.5,0.0101
290.75,0.0019
291.0,-0.0128
291.25,-0.0171
291.5,0.0009
291.75,0.0148
292.0,0.0507
292.25,0.0587
292.5,0.0053
292.75,-0.0045
293.0,0.0481
293.25,0.018
293.5,-0.0288
293.75,0.0043
294.0,-0.0213
294.25,0.0398
294.5,0.0161
294.75,0.0135
295.0,-0.0133
295.25,-0.016
295.5,0.0001
295.75,0.1566
296.0,-0.0031
296.25,0.0759
296.5,0.0786
296.75,-0.0089
297.0,0.0505
297.25,0.0147
297.5,0.0871
297.75,-0.0611
298.0,0.0305
298.25,0.0036
298.5,0.0305
298.75,0.1356
299.0,-0.0164
299.25,0.2386
299.5,-0.0003
299.75,0.0145
300.0,-0.0159
300.25,0.0282
300.5,-0.007
300.75,0.1236
301.0,-0.0206
301.25,-0.0123
301.5,-0.0134
301.75,0.0163
302.0,0.0094
302.25,0.0124
302.5,-0.0139
302.75,0.017
303.0,0.0121
303.25,0.0042
303.5,-0.0133
303.75,-0.0108
304.0,0.1082
304.25,0.0248
304.5,0.0727
304.75,0.0167
305.0,0.018
305.25,0.0005
305.5,0.0752
305.75,0.0062
306.0,0.0183
306.25,0.0978
306.5,0.0074
306.75,-0.0014
307.0,0.0088
307.25,-0.0053
307.5,0.0118
307.75,0.0001
308.0,0.7965
308.25,0.0063
308.5,0.0025
308.75,0.0568
309.0,-0.099
309.25,0.0031
309.5,0.0845
309.75,0.0068
310.0,-0.0179
310.25,-0.0086
310.5,-0.0003
310.75,-0.0043
311.0,-0.0472
311.25,-0.0028
311.5,0.0237
311.75,-0.0084
312.0,-0.0019
312.25,0.0009
312.5,0.0775
312.75,0.0057
313.0,0.0057
313.25,0.0561
313.5,0.1116
313.75,-0.0156
314.0,-0.0783
314.25,0.0839
314.5,0.0772
314.75,0.7391
315.0,-0.0072
315.25,-0.0076
315.5,-0.0055
315.75,-0.0209
316.0,0.1393
316.25,0.0985
316.5,0.0003
316.75,0.0502
317.0,0.0009
317.25,0.1354
317.5,-0.0068
317.75,-0.0098
318.0,-0.0045
318.25,0.0812
318.5,-0.0039
318.75,-0.0076
319.0,0.0021
319.25,0.3756
319.5,-0.0182
319.75,0.0613
320.0,-0.0008
320.25,-0.0079
320.5,-0.0154
320.75,-0.0436
321.0,-0.0038
321.25,0.3335
321.5,-0.004
321.75,0.0134
322.0,0.0083
322.25,0.1516
322.5,0.0233
322.75,0.0188
323.0,0.0605
323.25,-0.0116
323.5,0.0888
323.75,0.1293
324.0,0.0887
324.25,0.0072
324.5,0.056
324.75,-0.0063
325.0,0.0788
325.25,-0.0078
325.5,-0.0016
325.75,0.0132
326.0,0.0079
326.25,0.1181
326.5,0.3008
326.75,-0.0837
327.0,0.0368
327.25,0.2877
327.5,-0.0022
327.75,0.0307
328.0,-0.015
328.25,0.0483
328.5,0.0273
328.75,-0.0215
329.0,0.0135
329.25,0.0012
329.5,0.0038
329.75,0.0043
330.0,0.123
330.25,0.0059
330.5,-0.0098
330.75,0.013
331.0,0.0906
331.25,-0.0224
331.5,0.0065
331.75,0.0059
332.0,-0.0001
332.25,-0.0062
332.5,0.0181
332.75,-0.0018
333.0,0.1348
333.25,0.1728
333.5,0.0457
333.75,0.6272
334.0,0.1511
334.25,0.0848
334.5,0.0122
334.75,-0.0016
335.0,0.0461
335.25,0.0125
335.5,0.0687
335.75,0.0779
336.0,-0.0074
336.25,0.0136
336.5,0.0577
336.75,0.0202
337.0,0.7795
337.25,-0.0005
337.5,0.0614
337.75,0.0244
338.0,-0.0043
338.25,0.1611
338.5,-0.0022
338.75,0.105
339.0,-0.0058
339.25,0.0202
339.5,0.0176
339.75,0.1175
340.0,0.1412
340.25,0.7958
340.5,0.4678
340.75,0.5705
341.0,0.1345
341.25,-0.0112
341.5,0.003
341.75,-0.0088
342.0,0.0104
342.25,0.1511
342.5,0.003
342.75,-0.0045
343.0,-0.0112
343.25,-0.0001
343.5,0.0569
343.75,-0.0079
344.0,0.0396
344.25,0.1529
344.5,-0.0017
344.75,0.0134
345.0,0.0112
345.25,0.0762
345.5,-0.0134
345.75,0.1312
346.0,-0.0045
346.25,0.0248
346.5,0.0056
346.75,-0.0336
347.0,-0.0084
347.25,-0.0212
347.5,-0.0115
347.75,0.0149
348.0,-0.0293
348.25,0.1411
348.5,0.0043
348.75,0.1429
349.0,0.4471
349.25,0.0662
349.5,0.0139
349.75,0.0067
350.0,0.0053
350.25,0.0046
350.5,0.0221
350.75,0.0213
351.0,-0.1093
351.25,0.1202
351.5,0.0111
351.75,-0.0134
352.0,-0.004
352.25,-0.0201
352.5,0.0013
352.75,0.0873
353.0,0.0396
353.25,0.511
353.5,0.0355
353.75,0.0049
354.0,0.0822
354.25,0.005
354.5,0.1441
354.75,0.2897
355.0,0.0125
355.25,0.0101
355.5,0.0806
355.75,0.019
356.0,0.148
356.25,-0.009
356.5,-0.0015
356.75,0.0166
357.0,0.0116
357.25,-0.0187
357.5,0.2544
357.75,0.0064
358.0,-0.0021
358.25,0.0112
358.5,0.1303
358.75,0.0131
359.0,-0.0116
359.25,-0.1232
359.5,0.5266
359.75,0.0005
360.0,0.143
360.25,0.0142
360.5,0.8175
360.75,0.0499
361.0,0.2096
361.25,0.1234
361.5,0.2693
361.75,-0.0124
362.0,0.0019
362.25,0.0027
362.5,0.0144
362.75,-0.0256
363.0,-0.0058
363.25,-0.0081
363.5,0.0076
363.75,-0.0116
364.0,0.0303
364.25,0.0011
364.5,-0.0197
364.75,-0.0028
365.0,0.0232
365.25,0.7528
365.5,0.0489
365.75,0.3435
366.0,0.0184
366.25,-0.0273
366.5,-0.0032
366.75,0.0161
367.0,-0.0017
367.25,-0.0177
367.5,-0.0104
367.75,0.0138
368.0,-0.0976
368.25,0.0133
368.5,-0.028
368.75,-0.0234
369.0,0.0128
369.25,0.3814
369.5,-0.0365
369.75,-0.0033
370.0,-0.0009
370.25,0.1439
370.5,-0.0046
370.75,-0.0049
371.0,0.1448
371.25,0.0112
371.5,0.0639
371.75,0.0618
372.0,0.0184
372.25,0.169
372.5,0.0703
372.75,0.0816
373.0,0.0108
373.25,0.0017
373.5,0.0118
373.75,0.0014
374.0,0.1473
374.25,-0.0002
374.5,0.0022
374.75,-0.001
375.0,-0.0038
375.25,-0.0065
375.5,0.1302
375.75,0.1137
376.0,0.1073
376.25,0.0056
376.5,0.0643
376.75,0.0855
377.0,-0.1107
377.25,0.0077
377.5,0.3864
377.75,-0.0154
378.0,-0.0087
378.25,-0.0126
378.5,0.0005
378.75,0.0563
379.0,0.0104
379.25,-0.0248
379.5,0.158
379.75,0.0251
380.0,0.1281
380.25,-0.024
380.5,0.0087
380.75,0.0024
381.0,-0.0171
381.25,0.0581
381.5,0.0011
381.75,0.7874
382.0,0.6233
382.25,0.0948
382.5,0.0599
382.75,-0.0107
383.0,0.0686
383.25,0.0515
383.5,0.0124
383.75,0.01
384.0,0.0022
384.25,0.1117
384.5,-0.0049
384.75,0.0478
385.0,0.0029
385.25,-0.003
385.5,0.0003
385.75,-0.0201
386.0,0.016
386.25,0.0407
386.5,0.002
386.75,-0.004
387.0,0.011
387.25,-0.0094
387.5,0.0192
387.75,0.6429
388.0,-0.0104
388.25,0.0425
388.5,-0.0093
388.75,-0.0241
389.0,0.4917
389.25,0.0121
389.5,0.0336
389.75,-0.0021
390.0,0.0548
390.25,0.0038
390.5,-0.0103
390.75,-0.1191
391.0,-0.0048
391.25,0.0031
391.5,0.0116
391.75,0.0125
392.0,-0.0016
392.25,0.0144
392.5,0.0135
392.75,-0.0116
393.0,0.0464
393.25,0.1434
393.5,0.0059
393.75,0.0837
394.0,0.0897
394.25,0.0486
394.5,0.1551
394.75,0.0261
395.0,-0.0003
395.25,-0.0034
395.5,-0.008
395.75,0.0375
396.0,-0.0033
396.25,0.0068
396.5,0.007
396.75,-0.0053
397.0,0.1039
397.25,-0.0008
397.5,-0.0045
397.75,0.0279
398.0,0.0041
398.25,0.013
398.5,0.0118
398.75,-0.044
399.0,0.0088
399.25,-0.0002
399.5,0.0751
399.75,0.0103
400.0,0.1388
400.25,0.1533
400.5,0.1366
400.75,-0.003
401.0,-0.0036
401.25,0.1509
401.5,0.1042
401.75,0.0146
402.0,0.0087
402.25,0.0085
402.5,-0.0368
402.75,-0.0045
403.0,-0.0169
403.25,0.0678
403.5,0.6546
403.75,0.0173
404.0,-0.0016
404.25,-0.0103
404.5,0.112
404.75,0.0909
405.0,0.0144
405.25,0.0502
405.5,-0.103
405.75,-0.0281
406.0,0.1319
406.25,0.037
406.5,-0.0057
406.75,0.0408
407.0,0.0554
407.25,-0.1206
407.5,0.148
407.75,-0.1123
408.0,0.1661
408.25,-0.0021
408.5,0.0701
408.75,0.0122
409.0,0.0022
409.25,-0.0104
409.5,-0.0052
409.75,0.0109
410.0,0.0108
410.25,-0.0083
410.5,0.0154
410.75,0.0079
411.0,0.0909
411.25,-0.0188
411.5,0.0176
411.75,-0.0241
412.0,0.0117
412.25,-0.0108
412.5,0.0007
412.75,0.0335
413.0,0.0124
413.25,-0.0032
413.5,0.0605
413.75,0.137
414.0,0.02
414.25,0.0469
414.5,0.0178
414.75,0.0233
415.0,0.1092
415.25,0.0398
415.5,0.002
415.75,0.0048
416.0,-0.0085
416.25,0.0743
416.5,0.1634
416.75,-0.0215
417.0,0.0581
417.25,-0.01
417.5,0.8183
417.75,-0.0097
418.0,0.0162
418.25,0.0186
418.5,0.1245
418.75,0.0203
419.0,0.0278
419.25,0.434
419.5,0.0692
419.75,0.0295
420.0,0.0034
420.25,0.0809
420.5,0.0087
420.75,0.1267
421.0,0.0079
421.25,0.0001
421.5,-0.0148
421.75,-0.0033
422.0,-0.0101
422.25,0.0014
422.5,-0.0092
422.75,0.0034
423.0,0.0721
423.25,-0.0082
423.5,0.0377
423.75,0.1155
424.0,-0.0129
424.25,0.1258
424.5,0.0048
424.75,-0.0162
425.0,0.0101
425.25,0.0073
425.5,-0.0253
425.75,-0.0231
426.0,0.0041
426.25,0.0964
426.5,0.015
426.75,0.0039
427.0,-0.0066
427.25,-0.0134
427.5,0.0809
427.75,0.1505
428.0,0.1668
428.25,-0.0078
428.5,0.0034
428.75,-0.0018
429.0,-0.0087
429.25,-0.0002
429.5,0.0225
429.75,-0.0108
430.0,-0.0021
430.25,-0.0044
430.5,-0.0014
430.75,-0.0118
431.0,0.0017
431.25,0.1337
431.5,-0.0167
431.75,-0.0065
432.0,0.0725
432.25,-0.0055
432.5,0.0645
432.75,0.0016
433.0,-0.0073
433.25,-0.0095
433.5,0.038
433.75,-0.0021
434.0,0.0214
434.25,-0.0166
434.5,-0.0013
434.75,0.1137
435.0,-0.0069
435.25,-0.0072
435.5,0.1027
435.75,0.0158
436.0,0.0123
436.25,0.0197
436.5,-0.0143
436.75,-0.0054
437.0,0.7816
437.25,-0.048
437.5,0.0017
437.75,0.0976
438.0,0.02
438.25,-0.0104
438.5,-0.0057
438.75,0.0013
439.0,0.004
439.25,0.0099
439.5,-0.0319
439.75,-0.0112
440.0,0.0177
440.25,0.652
440.5,0.0042
440.75,-0.0731
441.0,0.7069
441.25,0.0058
441.5,0.3383
441.75,0.1216
442.0,-0.0045
442.25,0.0004
442.5,-0.0233
442.75,0.0041
443.0,0.0941
443.25,0.0022
443.5,0.0038
443.75,-0.0545
444.0,-0.0002
444.25,-0.0032
444.5,0.0845
444.75,0.0032
445.0,0.0004
445.25,0.0077
445.5,0.0222
445.75,0.6749
446.0,0.013
446.25,0.0216
446.5,-0.0136
446.75,-0.0039
447.0,0.0353
447.25,0.0156
447.5,-0.1224
447.75,0.059
448.0,0.6126
448.25,0.0076
448.5,0.7339
448.75,-0.0079
449.0,-0.0113
449.25,0.0185
449.5,0.0284
449.75,0.0753
450.0,-0.0046
450.25,-0.0045
450.5,0.0052
450.75,-0.015
451.0,-0.002
451.25,-0.0051
451.5,0.0635
451.75,0.0847
452.0,-0.0202
452.25,0.1467
452.5,0.0134
452.75,-0.0046
453.0,0.0067
453.25,0.0065
453.5,0.002
453.75,0.0395
454.0,0.128
454.25,-0.0113
454.5,-0.0006
454.75,0.0124
455.0,0.0709
455.25,0.0072
455.5,-0.0018
455.75,0.0329
456.0,-0.0115
456.25,0.0055
456.5,0.0059
456.75,0.0767
457.0,0.0015
457.25,-0.0086
457.5,0.1547
457.75,0.1323
458.0,-0.0811
458.25,0.035
458.5,0.1017
458.75,0.1165
459.0,0.0122
459.25,0.0019
459.5,0.7384
459.75,-0.0206
460.0,0.0183
460.25,0.0059
460.5,-0.0189
460.75,0.0064
461.0,0.002
461.25,-0.0179
461.5,-0.001
461.75,-0.0356
462.0,-0.0196
462.25,-0.0005
462.5,0.0129
462.75,-0.0074
463.0,-0.0073
463.25,0.0173
463.5,0.0532
463.75,0.0618
464.0,0.0977
464.25,-0.0111
464.5,0.0841
464.75,0.1464
465.0,-0.0235
465.25,-0.0039
465.5,-0.0009
465.75,0.0532
466.0,-0.0218
466.25,0.147
466.5,-0.0055
466.75,-0.108
467.0,-0.0035
467.25,0.6616
467.5,-0.0127
467.75,0.0048
468.0,0.0032
468.25,0.0032
468.5,0.0031
468.75,-0.0005
469.0,0.0507
469.25,-0.0074
469.5,0.0042
469.75,-0.0097
470.0,0.0142
470.25,-0.0187
470.5,0.0352
470.75,0.0034
471.0,-0.006
471.25,-0.0181
471.5,0.0101
471.75,0.8179
472.0,-0.0109
472.25,0.1146
472.5,-0.0046
472.75,-0.0133
473.0,0.0498
473.25,0.0218
473.5,0.0193
473.75,0.002
474.0,-0.1232
474.25,0.0047
474.5,0.002
474.75,0.0959
475.0,0.0809
475.25,-0.0552
475.5,-0.0111
475.75,0.0034
476.0,0.0026
476.25,-0.0064
476.5,0.1465
476.75,0.0083
477.0,-0.0026
477.25,0.1892
477.5,0.1363
477.75,0.0141
478.0,-0.0152
478.25,0.6305
478.5,-0.0106
478.75,-0.0002
479.0,0.5259
479.25,0.0213
479.5,-0.0061
479.75,0.0042
480.0,0.0234
480.25,0.1403
480.5,0.0431
480.75,-0.012
481.0,-0.0012
481.25,-0.01
481.5,0.0697
481.75,-0.01
482.0,0.0097
482.25,0.0009
482.5,0.0135
482.75,0.1522
483.0,0.0002
483.25,0.8018
483.5,0.0426
483.75,-0.0061
484.0,-0.0184
484.25,-0.0419
484.5,0.0089
484.75,-0.0196
485.0,0.7742
485.25,0.0257
485.5,-0.0102
485.75,0.0732
486.0,0.0681
486.25,0.0196
486.5,-0.0098
486.75,0.1455
487.0,0.0292
487.25,0.0404
487.5,-0.0112
487.75,0.1387
488.0,-0.0167
488.25,0.0639
488.5,0.0633
488.75,0.14
489.0,-0.0064
489.25,0.0281
489.5,0.133
489.75,-0.0214
490.0,-0.006
490.25,-0.0013
490.5,-0.005
490.75,-0.0256
491.0,0.0568
491.25,0.137
491.5,-0.0046
491.75,0.152
492.0,0.0559
492.25,0.057
492.5,0.0698
492.75,0.1063
493.0,-0.0081
493.25,0.0206
493.5,-0.0152
493.75,0.1363
494.0,-0.0142
494.25,-0.0074
494.5,-0.0032
494.75,-0.0016
495.0,0.1006
495.25,0.0616
495.5,0.1071
495.75,0.0064
496.0,-0.0714
496.25,0.0673
496.5,0.0752
496.75,0.1071
497.0,0.0672
497.25,0.077
497.5,-0.0226
497.75,0.0923
498.0,-0.0835
498.25,0.0547
498.5,0.0123
498.75,0.0492
499.0,0.0141
499.25,0.1489
499.5,-0.0079
499.75,-0.0108
500.0,-0.0007
500.25,-0.0253
500.5,-0.0162
500.75,0.0341
501.0,0.0764
501.25,0.016
501.5,0.0381
501.75,-0.018
502.0,0.0639
502.25,0.093
502.5,0.1335
502.75,-0.0025
503.0,0.0425
503.25,-0.0065
503.5,-0.017
503.75,0.1488
504.0,0.0234
504.25,0.0798
504.5,-0.0602
504.75,-0.0206
505.0,0.1324
505.25,0.0147
505.5,0.0183
505.75,0.007
506.0,0.1293
506.25,0.6634
506.5,0.1488
506.75,0.024
507.0,-0.0197
507.25,0.0046
507.5,0.014
507.75,0.0055
508.0,0.0027
508.25,0.0204
508.5,0.1511
508.75,0.1414
509.0,-0.002
509.25,0.1301
509.5,0.0092
509.75,-0.0056
510.0,0.0826
510.25,0.1372
510.5,0.0053
510.75,-0.0038
511.0,0.077
511.25,-0.0483
511.5,0.0169
511.75,-0.0281
512.0,0.0259
512.25,-0.0122
512.5,-0.0122
512.75,0.0596
513.0,-0.042
513.25,0.6006
513.5,-0.005
513.75,0.5066
514.0,0.0092
514.25,0.1213
514.5,0.0033
514.75,0.0026
515.0,0.0221
515.25,-0.018
515.5,0.1664
515.75,0.0228
516.0,0.0058
516.25,0.0017
516.5,-0.0014
516.75,0.0494
517.0,0.0012
517.25,0.0413
517.5,0.1232
517.75,0.0725
518.0,0.0287
518.25,0.0465
518.5,0.0285
518.75,0.1417
519.0,0.0108
519.25,-0.0085
519.5,-0.0052
519.75,0.0102
520.0,0.0463
520.25,0.0626
520.5,0.1312
520.75,-0.006
521.0,-0.0169
521.25,0.0182
521.5,-0.0065
521.75,0.0203
522.0,0.6318
522.25,0.0019
522.5,0.0679
522.75,0.0159
523.0,-0.0015
523.25,0.0959
523.5,0.0849
523.75,0.0901
524.0,0.0147
524.25,-0.0072
524.5,-0.0062
524.75,0.1465
525.0,0.0035
525.25,0.0192
525.5,-0.0142
525.75,-0.0101
526.0,0.0033
526.25,0.0107
526.5,-0.0123
526.75,0.143
527.0,0.0391
527.25,-0.0194
527.5,0.0622
527.75,-0.0161
528.0,-0.0281
528.25,0.7818
528.5,0.0893
528.75,-0.0019
529.0,0.1395
529.25,0.5286
529.5,-0.0215
529.75,-0.0002
530.0,-0.0015
530.25,0.0036
530.5,-0.0032
530.75,-0.0098
531.0,0.078
531.25,0.0062
531.5,-0.0182
531.75,-0.0086
532.0,0.0129
532.25,0.1424
532.5,-0.1074
532.75,-0.0132
533.0,0.0197
533.25,0.1276
533.5,-0.0125
533.75,0.0116
534.0,0.1688
534.25,-0.0971
534.5,0.0102
534.75,-0.0667
535.0,0.022
535.25,-0.0046
535.5,-0.0206
535.75,0.0087
536.0,0.4489
536.25,0.0264
536.5,0.027
536.75,0.1548
537.0,0.0102
537.25,0.0145
537.5,0.0073
537.75,-0.1185
538.0,-0.014
538.25,0.0737
538.5,0.0721
538.75,0.0212
539.0,-0.0114
539.25,0.011
539.5,0.0142
539.75,0.0266
540.0,-0.016
540.25,0.7726
540.5,0.0157
540.75,-0.0035
541.0,-0.0262
541.25,0.0395
541.5,0.0326
541.75,0.0675
542.0,0.0111
542.25,0.0068
542.5,0.0134
542.75,-0.005
543.0,0.0777
543.25,-0.0981
543.5,0.02
543.75,-0.0007
544.0,-0.0222
544.25,-0.0052
544.5,-0.0156
544.75,0.4727
545.0,0.0557
545.25,0.0065
545.5,0.068
545.75,0.0034
546.0,0.0007
546.25,-0.0017
546.5,0.4015
546.75,0.0666
547.0,0.8276
547.25,0.0807
547.5,0.0336
547.75,0.0657
548.0,-0.002
548.25,0.1006
548.5,-0.0095
548.75,0.042
549.0,0.0115
549.25,0.1532
549.5,0.0066
549.75,0.009
550.0,-0.0001
550.25,0.0093
550.5,0.003
550.75,0.0016
551.0,0.0038
551.25,0.0491
551.5,0.3061
551.75,0.1379
552.0,0.0327
552.25,0.0843
552.5,0.0285
552.75,0.0724
553.0,-0.0174
553.25,0.0064
553.5,0.0086
553.75,-0.0322
554.0,-0.0118
554.25,0.002
554.5,0.2557
554.75,0.0484
555.0,-0.0114
555.25,0.0094
555.5,0.0235
555.75,-0.0004
556.0,0.0051
556.25,-0.1022
556.5,0.04
556.75,-0.0253
557.0,0.0011
557.25,0.0345
557.5,0.5707
557.75,0.0764
558.0,-0.0057
558.25,0.0317
558.5,0.0009
558.75,-0.0068
559.0,-0.0071
559.25,0.0457
559.5,0.0905
559.75,-0.0032
560.0,0.0817
560.25,0.0056
560.5,0.0252
560.75,0.0096
561.0,0.061
561.25,0.0193
561.5,-0.0083
561.75,-0.018
562.0,0.7434
562.25,0.0167
562.5,-0.0016
562.75,0.0503
563.0,0.0694
563.25,-0.0172
563.5,0.1447
563.75,0.0097
564.0,0.4061
564.25,0.0435
564.5,-0.0127
564.75,-0.0057
565.0,0.0948
565.25,0.0025
565.5,0.0107
565.75,0.0026
566.0,0.043
566.25,0.0085
566.5,0.1176
566.75,0.043
567.0,-0.003
567.25,0.0811
567.5,0.1566
567.75,0.0093
568.0,0.1237
568.25,0.0686
568.5,-0.0091
568.75,0.0964
569.0,0.0197
569.25,-0.0018
569.5,0.0133
569.75,0.0444
570.0,-0.0043
570.25,0.1297
570.5,0.0865
570.75,0.1357
571.0,0.0051
571.25,0.0873
571.5,0.0066
571.75,0.1351
572.0,-0.0049
572.25,0.0061
572.5,0.0805
572.75,-0.0084
573.0,0.0859
573.25,0.6801
573.5,0.0631
573.75,-0.069
574.0,0.0354
574.25,-0.0166
574.5,-0.0058
574.75,-0.0027
575.0,0.0991
575.25,0.1503
575.5,0.0041
575.75,0.0052
576.0,0.1678
576.25,0.0129
576.5,0.0736
576.75,0.0066
577.0,0.0805
577.25,0.0707
577.5,0.0145
577.75,0.0139
578.0,-0.0062
578.25,0.0079
578.5,0.0411
578.75,0.0051
579.0,0.0261
579.25,0.0762
579.5,-0.0027
579.75,0.0074
580.0,-0.0078
580.25,0.0058
580.5,0.0601
580.75,-0.0095
581.0,0.01
581.25,0.046
581.5,-0.0196
581.75,0.1336
582.0,0.0205
582.25,-0.0101
582.5,0.0453
582.75,0.0262
583.0,0.136
583.25,-0.1045
583.5,0.0198
583.75,0.0382
584.0,-0.0054
584.25,0.0153
584.5,0.0005
584.75,-0.005
585.0,0.0404
585.25,0.0618
585.5,0.0047
585.75,0.0091
586.0,-0.0085
586.25,0.0293
586.5,0.0025
586.75,-0.0202
587.0,-0.0036
587.25,-0.0228
587.5,-0.007
587.75,0.0217
588.0,0.0146
588.25,0.1429
588.5,-0.0201
588.75,0.079
589.0,-0.0112
589.25,-0.0036
589.5,0.0817
589.75,0.0309
590.0,-0.0039
590.25,0.0075
590.5,-0.0023
590.75,-0.0081
591.0,0.1401
591.25,0.1166
591.5,-0.0055
591.75,-0.0032
592.0,-0.0375
592.25,0.0047
592.5,0.0664
592.75,-0.0031
593.0,-0.0184
593.25,-0.0102
593.5,0.0947
593.75,0.0167
594.0,0.1196
594.25,-0.0132
594.5,0.0218
594.75,0.1122
595.0,0.7597
595.25,0.0015
595.5,-0.0082
595.75,0.1734
596.0,-0.0255
596.25,-0.015
596.5,0.0053
596.75,0.0411
597.0,-0.0
597.25,-0.0029
597.5,0.4878
597.75,-0.023
598.0,0.104
598.25,0.0053
598.5,-0.0038
598.75,0.0009
599.0,-0.0001
599.25,0.0683
599.5,0.0259
599.75,-0.0151
600.0,0.0415
600.25,0.0056
600.5,0.0149
600.75,0.0386
601.0,-0.0017
601.25,-0.007
601.5,0.0088
601.75,0.007
602.0,0.0751
602.25,0.039
602.5,0.0093
602.75,0.0025
603.0,-0.0136
603.25,0.0061
603.5,0.134
603.75,0.1402
604.0,0.0499
604.25,-0.0043
604.5,0.1068
604.75,0.1101
605.0,-0.0027
605.25,0.7967
605.5,0.7594
605.75,-0.0083
606.0,0.0746
606.25,0.0213
606.5,0.0392
606.75,-0.0136
607.0,0.0038
607.25,0.5621
607.5,-0.0032
607.75,0.0685
608.0,-0.0034
608.25,0.0038
608.5,0.0049
608.75,0.0701
609.0,-0.0129
609.25,0.0272
609.5,0.0047
609.75,-0.0013
610.0,0.007
610.25,-0.0166
610.5,0.0049
610.75,-0.0096
611.0,0.1565
611.25,0.0179
611.5,0.0181
611.75,0.1688
612.0,-0.0129
612.25,0.0187
612.5,0.0072
612.75,-0.0207
613.0,0.0207
613.25,-0.0294
613.5,-0.0071
613.75,-0.0128
614.0,0.6878
614.25,-0.0134
614.5,0.0911
614.75,0.0125
615.0,0.0815
615.25,0.0084
615.5,0.1625
615.75,0.0071
616.0,0.0469
616.25,0.0235
616.5,0.0594
616.75,0.0368
617.0,0.0101
617.25,-0.005
617.5,-0.0103
617.75,0.0102
618.0,-0.0102
618.25,0.0415
618.5,0.0022
618.75,0.1368
619.0,0.0156
619.25,0.002
619.5,0.4295
619.75,0.0179
620.0,0.0026
620.25,0.7849
620.5,0.2664
620.75,-0.0045
621.0,0.0989
621.25,-0.0058
621.5,0.0848
621.75,0.0767
622.0,0.0031
622.25,-0.0113
622.5,-0.0914
622.75,0.0111
623.0,-0.0013
623.25,-0.0174
623.5,0.0454
623.75,-0.0118
624.0,-0.0055
624.25,0.0405
624.5,0.0003
624.75,0.0029
625.0,0.0199
625.25,0.1537
625.5,0.0152
625.75,0.0245
626.0,0.0177
626.25,0.155
626.5,0.0379
626.75,0.1602
627.0,-0.0147
627.25,0.0251
627.5,0.7509
627.75,0.0078
628.0,-0.0071
628.25,0.0219
628.5,0.2758
628.75,0.0105
629.0,0.0213
629.25,-0.0016
629.5,0.006
629.75,-0.0489
630.0,0.0115
630.25,-0.006
630.5,0.0017
630.75,-0.003
631.0,0.0853
631.25,-0.0155
631.5,0.0756
631.75,0.0095
632.0,0.1414
632.25,-0.0091
632.5,0.0077
632.75,0.1296
633.0,0.0054
633.25,0.1605
633.5,-0.0038
633.75,0.0311
634.0,0.0513
634.25,-0.0012
634.5,-0.0045
634.75,0.0054
635.0,-0.0634
635.25,-0.0064
635.5,-0.1409
635.75,0.0042
636.0,0.0141
636.25,-0.1014
636.5,-0.0206
636.75,0.0314
637.0,0.1402
637.25,-0.0195
637.5,0.1463
637.75,-0.0042
638.0,-0.013
638.25,0.0278
638.5,0.0162
638.75,-0.0051
639.0,-0.0062
639.25,0.0579
639.5,-0.011
639.75,-0.0004
640.0,-0.0007
640.25,-0.0156
640.5,0.0034
640.75,-0.011
641.0,0.0732
641.25,0.2249
641.5,-0.0121
641.75,-0.0062
642.0,-0.0162
642.25,0.0696
642.5,0.0303
642.75,0.0222
643.0,0.8107
643.25,0.005
643.5,-0.0117
643.75,-0.0069
644.0,0.0075
644.25,0.0177
644.5,0.1665
644.75,-0.0175
645.0,-0.0478
645.25,0.1335
645.5,-0.0079
645.75,0.0036
646.0,0.0253
646.25,0.7497
646.5,0.1201
646.75,0.161
647.0,0.1566
647.25,0.0748
647.5,0.0345
647.75,0.0041
648.0,0.0506
648.25,0.0064
648.5,-0.0012
648.75,0.0216
649.0,-0.0032
649.25,-0.0184
649.5,0.0513
649.75,-0.0004
650.0,0.008
650.25,0.0019
650.5,0.0018
650.75,0.013
651.0,-0.0563
651.25,0.0928
651.5,0.0542
651.75,-0.0085
652.0,0.5742
652.25,0.0005
652.5,0.0092
652.75,0.1178
653.0,-0.0053
653.25,-0.0018
653.5,0.0048
653.75,0.0613
654.0,-0.0041
654.25,0.0025
654.5,0.2928
654.75,-0.0139
655.0,-0.0085
655.25,0.008
655.5,0.0076
655.75,0.0012
656.0,0.1551
656.25,-0.0816
656.5,0.0005
656.75,0.1392
657.0,0.0687
657.25,-0.0136
657.5,-0.0079
657.75,0.0157
658.0,-0.1071
658.25,0.0639
658.5,-0.0123
658.75,0.0059
659.0,0.0204
659.25,0.0683
659.5,0.2793
659.75,0.0006
