time,ecg
0.0,0.0069
0.25,0.0001
0.5,-0.0091
0.75,0.0706
1.0,-0.0047
1.25,0.107
1.5,0.0767
1.75,-0.0003
2.0,0.0035
2.25,-0.0214
2.5,0.0113
2.75,0.0012
3.0,-0.0037
3.25,-0.004
3.5,0.0569
3.75,-0.0136
4.0,0.0113
4.25,0.08
4.5,0.0785
4.75,0.005
5.0,0.0043
5.25,0.0032
5.5,0.0185
5.75,0.0389
6.0,-0.0011
6.25,0.0116
6.5,0.0145
6.75,0.0032
7.0,-0.0901
7.25,-0.0421
7.5,-0.0273
7.75,-0.016
8.0,-0.0289
8.25,0.0186
8.5,0.1131
8.75,-0.016
9.0,-0.0161
9.25,0.0113
9.5,0.02
9.75,0.3123
10.0,0.4509
10.25,-0.0162
10.5,0.0235
10.75,-0.0162
11.0,0.1516
11.25,-0.0148
11.5,0.7617
11.75,0.3229
12.0,0.0118
12.25,0.2167
12.5,0.3772
12.75,-0.002
13.0,-0.0064
13.25,0.0134
13.5,-0.0172
13.75,0.1283
14.0,0.0014
14.25,0.0139
14.5,0.0073
14.75,0.008
15.0,0.0173
15.25,-0.0022
15.5,-0.0094
15.75,0.0855
16.0,0.092
16.25,0.1193
16.5,-0.0154
16.75,0.1309
17.0,0.3583
17.25,-0.0128
17.5,-0.0009
17.75,0.0067
18.0,0.0026
18.25,-0.0319
18.5,0.0604
18.75,0.0112
19.0,-0.0107
19.25,-0.014
19.5,0.0082
19.75,0.3329
20.0,0.0108
20.25,0.0855
20.5,0.0093
20.75,0.1073
21.0,0.0038
21.25,0.2813
21.5,-0.0134
21.75,0.1569
22.0,0.0216
22.25,0.0006
22.5,0.1485
22.75,0.0085
23.0,0.0785
23.25,0.0041
23.5,0.0232
23.75,0.0706
24.0,0.0005
24.25,0.0109
24.5,0.0029
24.75,0.0284
25.0,-0.0063
25.25,0.0419
25.5,-0.0029
25.75,0.0507
26.0,0.0144
26.25,0.0083
26.5,-0.0706
26.75,0.0053
27.0,-0.0197
27.25,0.0174
27.5,0.0004
27.75,0.0037
28.0,0.0611
28.25,-0.027
28.5,0.057
28.75,0.0037
29.0,0.0572
29.25,-0.0183
29.5,0.0025
29.75,-0.0179
30.0,0.0123
30.25,-0.0096
30.5,0.0093
30.75,0.0042
31.0,-0.0028
31.25,-0.0049
31.5,0.0054
31.75,0.1015
32.0,0.016
32.25,-0.0198
32.5,0.0656
32.75,0.0147
33.0,0.0653
33.25,-0.0048
33.5,-0.0048
33.75,0.0357
34.0,-0.0073
34.25,-0.0033
34.5,0.7626
34.75,0.0132
35.0,0.0442
35.25,0.0372
35.5,0.0034
35.75,0.0185
36.0,-0.0208
36.25,-0.0128
36.5,0.0012
36.75,-0.0032
37.0,0.0734
37.25,0.0048
37.5,-0.0087
37.75,0.0116
38.0,0.0823
38.25,0.0182
38.5,-0.0011
38.75,0.0076
39.0,-0.114
39.25,-0.0882
39.5,-0.0835
39.75,-0.0028
40.0,-0.0071
40.25,0.1406
40.5,-0.0206
40.75,0.1413
41.0,0.0162
41.25,0.0438
41.5,-0.0103
41.75,0.026
42.0,0.1485
42.25,0.0076
42.5,0.0685
42.75,0.0815
43.0,0.1348
43.25,0.0461
43.5,0.014
43.75,-0.0252
44.0,0.0108
44.25,0.0057
44.5,0.0243
44.75,0.0746
45.0,0.0022
45.25,0.0691
45.5,0.599
45.75,-0.0264
46.0,0.8282
46.25,0.1008
46.5,0.0665
46.75,0.0588
47.0,0.1128
47.25,0.0044
47.5,0.0099
47.75,0.0653
48.0,0.0035
48.25,0.1599
48.5,-0.013
48.75,0.152
49.0,0.7646
49.25,0.072
49.5,0.0044
49.75,0.1301
50.0,0.1286
50.25,0.1512
50.5,0.0214
50.75,-0.0291
51.0,0.0101
51.25,0.0107
51.5,-0.0285
51.75,-0.0019
52.0,0.1141
52.25,0.7969
52.5,0.3317
52.75,0.0378
53.0,-0.0282
53.25,0.1493
53.5,0.1174
53.75,0.0099
54.0,0.0854
54.25,0.1204
54.5,0.0196
54.75,-0.106
55.0,0.0081
55.25,0.0138
55.5,0.0214
55.75,-0.0203
56.0,0.0311
56.25,0.0799
56.5,-0.0027
56.75,-0.013
57.0,0.007
57.25,-0.0045
57.5,0.136
57.75,0.0009
58.0,0.01
58.25,0.0172
58.5,0.0134
58.75,0.0132
59.0,0.1074
59.25,0.0
59.5,0.0476
59.75,0.0114
60.0,0.0345
60.25,-0.001
60.5,-0.0087
60.75,0.0481
61.0,0.1073
61.25,0.1328
61.5,-0.0077
61.75,0.0108
62.0,-0.0011
62.25,0.0047
62.5,0.0394
62.75,-0.0002
63.0,0.1509
63.25,0.0006
63.5,-0.0277
63.75,-0.0064
64.0,-0.0076
64.25,0.053
64.5,-0.0131
64.75,0.0245
65.0,0.1517
65.25,0.0117
65.5,-0.0289
65.75,0.0585
66.0,-0.0865
66.25,0.0193
66.5,0.0722
66.75,-0.005
67.0,-0.0129
67.25,-0.0017
67.5,-0.0306
67.75,-0.032
68.0,0.0514
68.25,0.0006
68.5,0.0689
68.75,-0.01
69.0,0.0058
69.25,0.0399
69.5,0.0211
69.75,0.0275
70.0,-0.0162
70.25,-0.0148
70.5,-0.0048
70.75,-0.0003
71.0,0.7657
71.25,0.1238
71.5,-0.0074
71.75,0.0524
72.0,0.0755
72.25,0.81
72.5,-0.0222
72.75,0.0074
73.0,0.0742
73.25,-0.0162
73.5,0.1468
73.75,-0.0108
74.0,-0.1039
74.25,-0.0006
74.5,0.009
74.75,-0.0059
75.0,0.0071
75.25,-0.0097
75.5,-0.0048
75.75,0.7884
76.0,0.7901
76.25,0.0558
76.5,0.0223
76.75,0.1894
77.0,0.0098
77.25,0.0091
77.5,0.0945
77.75,0.0455
78.0,-0.0186
78.25,0.0012
78.5,0.0262
78.75,0.1301
79.0,0.0042
79.25,0.0264
79.5,0.0103
79.75,0.0335
80.0,0.0062
80.25,0.1363
80.5,-0.0073
80.75,0.0058
81.0,-0.0272
81.25,0.0238
81.5,0.7901
81.75,0.1199
82.0,0.0037
82.25,0.061
82.5,0.0104
82.75,0.0423
83.0,0.0254
83.25,0.0022
83.5,-0.0044
83.75,0.0069
84.0,0.0024
84.25,-0.068
84.5,0.073
84.75,-0.0144
85.0,0.0828
85.25,0.3939
85.5,0.0029
85.75,-0.0109
86.0,-0.0209
86.25,0.3896
86.5,0.0137
86.75,-0.0135
87.0,0.1414
87.25,-0.0015
87.5,0.0085
87.75,-0.011
88.0,0.5455
88.25,0.1066
88.5,-0.0038
88.75,0.0032
89.0,0.1352
89.25,0.0084
89.5,0.0098
89.75,0.0008
90.0,-0.0569
90.25,0.0607
90.5,0.1465
90.75,0.0209
91.0,-0.003
91.25,0.0069
91.5,0.0146
91.75,0.0496
92.0,-0.0036
92.25,0.1202
92.5,0.4697
92.75,0.0583
93.0,-0.0092
93.25,-0.0025
93.5,-0.0142
93.75,0.0456
94.0,0.0124
94.25,0.0261
94.5,0.0351
94.75,0.1604
95.0,0.0887
95.25,0.0889
95.5,0.0575
95.75,0.0974
96.0,0.0047
96.25,0.1448
96.5,-0.0092
96.75,0.03
97.0,-0.0075
97.25,-0.0006
97.5,-0.0051
97.75,-0.0002
98.0,0.0374
98.25,-0.0147
98.5,0.1077
98.75,0.1111
99.0,0.1021
99.25,0.068
99.5,-0.0163
99.75,0.1398
100.0,-0.0238
100.25,-0.0023
100.5,0.0182
100.75,0.7617
101.0,-0.0055
101.25,-0.0051
101.5,0.0632
101.75,0.0752
102.0,-0.02
102.25,-0.0141
102.5,-0.0065
102.75,0.0029
103.0,-0.0051
103.25,-0.011
103.5,0.0547
103.75,0.0115
104.0,0.0121
104.25,0.0037
104.5,0.1453
104.75,0.3427
105.0,-0.0056
105.25,-0.0203
105.5,0.0999
105.75,0.0771
106.0,0.0596
106.25,0.0036
106.5,0.0049
106.75,0.0836
107.0,0.0137
107.25,-0.0101
107.5,0.005
107.75,0.0068
108.0,-0.0017
108.25,-0.0054
108.5,0.0164
108.75,0.0107
109.0,0.0071
109.25,-0.0161
109.5,-0.0113
109.75,0.0623
110.0,-0.0073
110.25,-0.0078
110.5,0.0056
110.75,0.0858
111.0,-0.0023
111.25,0.148
111.5,0.0138
111.75,0.0552
112.0,-0.0156
112.25,0.069
112.5,-0.011
112.75,-0.0066
113.0,-0.0141
113.25,-0.0288
113.5,0.0058
113.75,0.0084
114.0,0.0039
114.25,-0.0183
114.5,0.7136
114.75,-0.0237
115.0,-0.0363
115.25,0.0222
115.5,0.0134
115.75,0.0373
116.0,-0.093
116.25,-0.1505
116.5,-0.0156
116.75,0.0003
117.0,0.013
117.25,0.0814
117.5,0.0476
117.75,-0.0035
118.0,0.0058
118.25,-0.0405
118.5,0.1641
118.75,-0.0058
119.0,0.0951
119.25,-0.1065
119.5,0.0063
119.75,0.0701
120.0,0.0668
120.25,-0.0116
120.5,-0.0184
120.75,0.0173
121.0,0.0229
121.25,-0.0072
121.5,-0.0168
121.75,0.0266
122.0,0.0038
122.25,0.0133
122.5,0.0314
122.75,0.0483
123.0,0.0099
123.25,0.0071
123.5,0.1371
123.75,-0.0131
124.0,0.0934
124.25,0.007
124.5,-0.0466
124.75,-0.0007
125.0,-0.0065
125.25,0.7821
125.5,-0.0141
125.75,0.014
126.0,-0.0104
126.25,0.0803
126.5,-0.077
126.75,0.0139
127.0,0.0036
127.25,0.1189
127.5,0.0227
127.75,0.0401
128.0,-0.0026
128.25,0.0464
128.5,-0.003
128.75,0.0236
129.0,0.0102
129.25,-0.0817
129.5,-0.0063
129.75,0.0587
130.0,0.053
130.25,-0.0032
130.5,0.0032
130.75,-0.0105
131.0,0.0036
131.25,0.0878
131.5,0.0045
131.75,-0.027
132.0,0.0067
132.25,-0.0316
132.5,0.0164
132.75,-0.0035
133.0,0.6091
133.25,0.0844
133.5,-0.0142
133.75,-0.107
134.0,-0.0104
134.25,0.0583
134.5,-0.0128
134.75,-0.0283
135.0,0.0166
135.25,0.015
135.5,0.0971
135.75,0.1488
136.0,0.002
136.25,0.0179
136.5,0.0119
136.75,0.0531
137.0,0.086
137.25,-0.005
137.5,0.1075
137.75,0.0227
138.0,0.0189
138.25,-0.0006
138.5,0.124
138.75,0.0783
139.0,0.0793
139.25,0.0272
139.5,-0.0226
139.75,0.1502
140.0,0.0778
140.25,-0.0072
140.5,0.0368
140.75,0.54
141.0,0.0036
141.25,0.1511
141.5,0.0925
141.75,-0.1019
142.0,0.0141
142.25,-0.0286
142.5,0.0165
142.75,0.044
143.0,0.0295
143.25,-0.0132
143.5,-0.0103
143.75,0.0021
144.0,0.0326
144.25,0.1091
144.5,0.0034
144.75,-0.0131
145.0,0.1147
145.25,0.0313
145.5,0.0669
145.75,-0.0127
146.0,0.0809
146.25,0.0103
146.5,0.0658
146.75,0.2372
147.0,0.1132
147.25,-0.0107
147.5,0.1334
147.75,-0.0214
148.0,-0.0144
148.25,0.0019
148.5,-0.1322
148.75,-0.0013
149.0,-0.0144
149.25,0.0056
149.5,0.1205
149.75,-0.0088
150.0,-0.0081
150.25,0.7262
150.5,-0.0484
150.75,-0.0271
151.0,-0.0112
151.25,-0.0172
151.5,-0.0162
151.75,-0.0064
152.0,0.022
152.25,-0.0004
152.5,0.0291
152.75,-0.016
153.0,-0.0382
153.25,-0.0035
153.5,-0.1163
153.75,-0.0023
154.0,0.1088
154.25,0.0132
154.5,0.0004
154.75,0.0591
155.0,-0.0238
155.25,-0.0131
155.5,0.0054
155.75,0.2792
156.0,0.0105
156.25,0.0985
156.5,-0.01
156.75,0.0245
157.0,0.0003
157.25,0.0221
157.5,0.127
157.75,0.02
158.0,0.0231
158.25,0.0985
158.5,-0.0095
158.75,0.0395
159.0,0.3833
159.25,0.0316
159.5,0.1461
159.75,0.0365
160.0,-0.0026
160.25,0.4231
160.5,0.0182
160.75,-0.087
161.0,0.0044
161.25,0.0072
161.5,0.0414
161.75,0.004
162.0,0.1103
162.25,-0.0029
162.5,-0.0007
162.75,0.0081
163.0,0.0135
163.25,0.14
163.5,0.0234
163.75,0.0107
164.0,0.0058
164.25,-0.0058
164.5,0.1692
164.75,-0.0365
165.0,0.0303
165.25,0.0035
165.5,0.0945
165.75,-0.1074
166.0,-0.0114
166.25,0.0051
166.5,-0.0061
166.75,0.1156
167.0,0.0699
167.25,0.1366
167.5,0.0008
167.75,-0.0086
168.0,0.005
168.25,0.022
168.5,0.0653
168.75,0.0021
169.0,-0.0154
169.25,-0.0127
169.5,0.0055
169.75,-0.0026
170.0,-0.0792
170.25,0.1364
170.5,0.0095
170.75,0.0248
171.0,0.1294
171.25,-0.058
171.5,0.017
171.75,0.3245
172.0,-0.0076
172.25,0.1392
172.5,0.0324
172.75,0.1083
173.0,0.0701
173.25,-0.0043
173.5,-0.008
173.75,0.1224
174.0,0.009
174.25,0.0272
174.5,-0.001
174.75,-0.0076
175.0,-0.0056
175.25,-0.0018
175.5,0.003
175.75,0.1615
176.0,-0.0174
176.25,-0.1108
176.5,0.0837
176.75,-0.0005
177.0,-0.0111
177.25,0.1305
177.5,0.0923
177.75,0.1254
178.0,-0.0904
178.25,-0.0112
178.5,0.0049
178.75,-0.057
179.0,-0.0085
179.25,0.0718
179.5,-0.0172
179.75,-0.0079
180.0,0.0585
180.25,-0.0288
180.5,0.0027
180.75,-0.0132
181.0,-0.0036
181.25,-0.0332
181.5,-0.0021
181.75,0.0416
182.0,0.0283
182.25,-0.044
182.5,0.028
182.75,0.0059
183.0,0.0
183.25,0.0921
183.5,0.0065
183.75,0.0376
184.0,0.0051
184.25,0.0003
184.5,-0.0105
184.75,0.0052
185.0,0.0016
185.25,-0.0065
185.5,-0.0095
185.75,-0.0026
186.0,0.0163
186.25,-0.0036
186.5,0.0117
186.75,-0.001
187.0,0.0118
187.25,-0.0058
187.5,0.0045
187.75,0.0007
188.0,0.0085
188.25,-0.0106
188.5,0.0
188.75,-0.0213
189.0,-0.0298
189.25,0.1226
189.5,-0.0241
189.75,0.0721
190.0,0.085
190.25,0.0893
190.5,-0.0053
190.75,-0.0242
191.0,0.0031
191.25,0.086
191.5,0.2174
191.75,-0.0082
192.0,0.0112
192.25,0.0152
192.5,-0.0568
192.75,0.0019
193.0,-0.0028
193.25,-0.0104
193.5,0.0051
193.75,-0.0435
194.0,0.0132
194.25,0.1377
194.5,-0.0054
194.75,0.098
195.0,-0.004
195.25,-0.007
195.5,0.1214
195.75,0.0091
196.0,0.0771
196.25,-0.0067
196.5,0.0106
196.75,-0.0523
197.0,0.3574
197.25,0.1491
197.5,0.0053
197.75,0.0053
198.0,-0.0441
198.25,-0.0292
198.5,-0.0207
198.75,0.1421
199.0,0.0691
199.25,-0.0102
199.5,0.0509
199.75,-0.009
200.0,0.0442
200.25,0.5369
200.5,0.0367
200.75,0.1234
201.0,0.0736
201.25,0.0383
201.5,-0.0286
201.75,0.0179
202.0,0.1457
202.25,-0.0076
202.5,-0.0089
202.75,0.0022
203.0,-0.021
203.25,-0.037
203.5,0.1043
203.75,-0.0269
204.0,0.1246
204.25,-0.0117
204.5,-0.0151
204.75,0.7718
205.0,-0.0055
205.25,-0.0039
205.5,0.0795
205.75,-0.019
206.0,0.0954
206.25,0.0498
206.5,0.0088
206.75,-0.031
207.0,0.0497
207.25,0.012
207.5,-0.0083
207.75,-0.0038
208.0,-0.0118
208.25,0.0756
208.5,-0.0216
208.75,-0.0951
209.0,0.0288
209.25,0.0512
209.5,0.0058
209.75,0.0219
210.0,0.5193
210.25,0.0001
210.5,0.0014
210.75,0.0502
211.0,-0.0043
211.25,-0.0037
211.5,0.0239
211.75,0.0008
212.0,-0.0196
212.25,0.1248
212.5,0.0201
212.75,0.1354
213.0,0.0038
213.25,0.0755
213.5,-0.0013
213.75,0.0259
214.0,0.034
214.25,-0.0106
214.5,0.1651
214.75,0.0469
215.0,0.0051
215.25,0.0201
215.5,-0.0044
215.75,-0.0001
216.0,0.014
216.25,0.2953
216.5,0.07
216.75,-0.0081
217.0,0.0132
217.25,0.0046
217.5,-0.0121
217.75,0.1191
218.0,0.0051
218.25,-0.0065
218.5,0.0794
218.75,0.0099
219.0,0.7384
219.25,0.0085
219.5,0.1509
219.75,-0.005
220.0,-0.0141
220.25,-0.0034
220.5,-0.1018
220.75,-0.0022
221.0,-0.0049
221.25,-0.0009
221.5,0.0062
221.75,0.1164
222.0,0.0904
222.25,-0.013
222.5,0.0032
222.75,0.0551
223.0,-0.0942
223.25,0.0051
223.5,-0.0151
223.75,0.0588
224.0,0.47
224.25,0.0092
224.5,-0.0101
224.75,0.1457
225.0,0.6156
225.25,0.0935
225.5,0.0025
225.75,0.1192
226.0,-0.0034
226.25,-0.0177
226.5,0.0587
226.75,0.0115
227.0,-0.0028
227.25,0.0011
227.5,-0.0013
227.75,0.1616
228.0,0.0109
228.25,0.119
228.5,0.0727
228.75,0.0008
229.0,0.0269
229.25,0.0024
229.5,0.7899
229.75,0.0003
230.0,0.1628
230.25,0.0028
230.5,0.1308
230.75,0.0651
231.0,-0.0109
231.25,-0.003
231.5,0.003
231.75,-0.1085
232.0,-0.0095
232.25,-0.02
232.5,0.0281
232.75,0.126
233.0,-0.0007
233.25,-0.0098
233.5,0.1196
233.75,0.0326
234.0,0.009
234.25,-0.0396
234.5,0.0642
234.75,0.0152
235.0,-0.091
235.25,-0.0469
235.5,0.0035
235.75,0.0192
236.0,0.0001
236.25,0.0109
236.5,0.0068
236.75,0.1146
237.0,0.148
237.25,-0.0022
237.5,0.0898
237.75,-0.0081
238.0,0.0033
238.25,0.1528
238.5,0.0844
238.75,0.0857
239.0,0.0376
239.25,-0.022
239.5,-0.1038
239.75,-0.0029
240.0,0.0009
240.25,0.054
240.5,0.0046
240.75,0.3617
241.0,-0.0029
241.25,0.0017
241.5,-0.0038
241.75,-0.01
242.0,0.0066
242.25,-0.0097
242.5,0.0038
242.75,0.0937
243.0,-0.0042
243.25,0.0174
243.5,0.0834
243.75,-0.0047
244.0,0.0047
244.25,0.0122
244.5,0.0042
244.75,0.1342
245.0,0.0007
245.25,0.1316
245.5,0.0078
245.75,0.0142
246.0,0.0287
246.25,0.0603
246.5,0.0601
246.75,0.0684
247.0,0.0036
247.25,0.8019
247.5,0.0088
247.75,0.0537
248.0,0.0677
248.25,-0.0902
248.5,0.0085
248.75,-0.0018
249.0,-0.006
249.25,-0.0035
249.5,0.0087
249.75,0.1013
250.0,-0.0015
250.25,0.012
250.5,0.0071
250.75,0.0108
251.0,0.0663
251.25,0.0122
251.5,0.003
251.75,0.0064
252.0,-0.0063
252.25,0.0031
252.5,0.0081
252.75,0.069
253.0,0.1194
253.25,-0.0008
253.5,-0.0167
253.75,0.1003
254.0,-0.0047
254.25,-0.0298
254.5,0.5406
254.75,-0.0062
255.0,-0.0106
255.25,0.004
255.5,-0.1208
255.75,0.0056
256.0,-0.0097
256.25,0.0566
256.5,0.006
256.75,0.0043
257.0,-0.0087
257.25,0.1522
257.5,0.0009
257.75,-0.0004
258.0,-0.0042
258.25,0.1359
258.5,0.0962
258.75,0.0386
259.0,-0.0278
259.25,0.0443
259.5,-0.006
259.75,0.1177
260.0,0.0623
260.25,-0.0069
260.5,-0.0178
260.75,-0.007
261.0,-0.0023
261.25,0.1492
261.5,0.1084
261.75,0.0754
262.0,0.1353
262.25,0.0009
262.5,0.0704
262.75,0.0052
263.0,0.1144
263.25,0.0201
263.5,-0.0289
263.75,-0.1177
264.0,-0.0056
264.25,0.0473
264.5,0.4076
264.75,-0.0062
265.0,-0.0093
265.25,0.0028
265.5,-0.0167
265.75,0.0055
266.0,0.0822
266.25,0.0518
266.5,-0.0023
266.75,0.008
267.0,-0.0087
267.25,0.0231
267.5,0.4494
267.75,-0.0043
268.0,0.1515
268.25,-0.0011
268.5,0.0941
268.75,-0.0223
269.0,0.0079
269.25,-0.0167
269.5,0.0004
269.75,0.1637
270.0,0.0617
270.25,0.0054
270.5,-0.0076
270.75,-0.0171
271.0,-0.0024
271.25,-0.0013
271.5,0.0147
271.75,0.0078
272.0,-0.0024
272.25,0.0233
272.5,-0.0081
272.75,-0.0173
273.0,-0.017
273.25,-0.1234
273.5,-0.0224
273.75,0.0164
274.0,-0.0053
274.25,0.1445
274.5,-0.0034
274.75,0.0074
275.0,0.0003
275.25,-0.0108
275.5,-0.0863
275.75,0.0585
276.0,-0.0107
276.25,0.0576
276.5,-0.0173
276.75,0.0051
277.0,-0.0021
277.25,0.0375
277.5,0.0351
277.75,0.0062
278.0,0.0707
278.25,0.1472
278.5,-0.007
278.75,0.1121
279.0,0.1591
279.25,-0.0021
279.5,0.1056
279.75,0.006
280.0,-0.0034
280.25,0.0046
280.5,-0.0277
280.75,-0.0136
281.0,0.7876
281.25,0.0104
281.5,-0.0164
281.75,0.0793
282.0,0.0176
282.25,0.0001
282.5,0.0577
282.75,0.1423
283.0,-0.0126
283.25,0.0484
283.5,0.0136
283.75,-0.007
284.0,-0.0104
284.25,-0.0057
284.5,-0.0097
284.75,0.0001
285.0,-0.0076
285.25,0.0835
285.5,0.0146
285.75,0.0149
286.0,-0.1145
286.25,-0.1078
286.5,0.0267
286.75,0.0029
287.0,0.3171
287.25,0.7882
287.5,0.0177
287.75,0.0345
288.0,-0.0119
288.25,0.0584
288.5,0.0514
288.75,-0.0093
289.0,0.0286
289.25,-0.0097
289.5,0.0709
289.75,0.009
290.0,0.1629
290.25,0.0227
290.5,0.0587
290.75,-0.1159
291.0,0.0103
291.25,0.0002
291.5,-0.0039
291.75,-0.0384
292.0,-0.002
292.25,0.0038
292.5,0.0004
292.75,-0.0094
293.0,0.0187
293.25,0.0086
293.5,0.0272
293.75,0.0516
294.0,0.1301
294.25,-0.0105
294.5,-0.0166
294.75,0.006
295.0,-0.0012
295.25,-0.0264
295.5,-0.0059
295.75,0.0018
296.0,-0.0189
296.25,-0.0242
296.5,0.0621
296.75,0.0226
297.0,0.0209
297.25,0.1038
297.5,0.0088
297.75,0.1203
298.0,-0.0476
298.25,-0.114
298.5,0.0083
298.75,-0.0005
299.0,0.0111
299.25,0.0113
299.5,-0.0029
299.75,-0.0083
300.0,0.0807
300.25,0.0331
300.5,0.0272
300.75,0.0025
301.0,0.0145
301.25,0.12
301.5,-0.0007
301.75,-0.0093
302.0,-0.0116
302.25,0.1307
302.5,-0.0248
302.75,0.04
303.0,-0.0
303.25,0.005
303.5,0.014
303.75,0.1418
304.0,0.0126
304.25,0.0062
304.5,-0.0173
304.75,0.0216
305.0,0.1208
305.25,-0.0208
305.5,-0.0082
305.75,-0.021
306.0,0.1117
306.25,0.0422
306.5,0.0653
306.75,0.0169
307.0,-0.0029
307.25,-0.004
307.5,-0.0468
307.75,0.0159
308.0,-0.0349
308.25,-0.0018
308.5,0.0346
308.75,0.0063
309.0,0.074
309.25,0.0
309.5,-0.0033
309.75,0.0522
310.0,0.1522
310.25,-0.0015
310.5,0.0078
310.75,-0.0126
311.0,-0.1337
311.25,0.0167
311.5,-0.0003
311.75,0.0125
312.0,0.1443
312.25,0.1474
312.5,0.0138
312.75,0.0914
313.0,-0.0165
313.25,0.0312
313.5,-0.0133
313.75,0.0302
314.0,0.0085
314.25,0.0258
314.5,-0.0021
314.75,0.0755
315.0,0.0154
315.25,-0.0062
315.5,0.0086
315.75,0.0103
316.0,0.0083
316.25,0.0116
316.5,-0.0192
316.75,0.0656
317.0,0.1272
317.25,-0.0255
317.5,0.0148
317.75,0.0087
318.0,-0.014
318.25,0.0467
318.5,0.0484
318.75,0.015
319.0,0.0022
319.25,0.4646
319.5,-0.0074
319.75,0.0029
320.0,-0.0214
320.25,-0.0101
320.5,0.0252
320.75,0.0891
321.0,-0.0157
321.25,0.0818
321.5,0.1479
321.75,0.0891
322.0,-0.0083
322.25,-0.0055
322.5,-0.0122
322.75,0.0286
323.0,0.1209
323.25,0.0222
323.5,0.0014
323.75,0.0105
324.0,0.1305
324.25,0.7653
324.5,-0.0017
324.75,-0.0025
325.0,-0.0166
325.25,-0.0094
325.5,0.0149
325.75,-0.1298
326.0,-0.0064
326.25,-0.0023
326.5,0.0127
326.75,0.0028
327.0,0.013
327.25,-0.0099
327.5,0.0096
327.75,0.0162
328.0,0.0707
328.25,-0.0334
328.5,0.0706
328.75,0.1466
329.0,0.0084
329.25,0.0062
329.5,-0.0155
329.75,-0.0121
330.0,0.0006
330.25,0.0582
330.5,0.0407
330.75,0.0287
331.0,0.0782
331.25,-0.0224
331.5,-0.0947
331.75,0.1476
332.0,0.0057
332.25,-0.0026
332.5,0.0396
332.75,0.1257
333.0,0.1425
333.25,0.7525
333.5,0.0997
333.75,-0.0273
334.0,-0.0242
334.25,0.0228
334.5,0.0848
334.75,0.0729
335.0,-0.0432
335.25,0.0031
335.5,-0.0011
335.75,-0.0057
336.0,0.7971
336.25,-0.0202
336.5,0.0009
336.75,-0.0026
337.0,-0.0064
337.25,0.0197
337.5,-0.011
337.75,0.4583
338.0,0.0064
338.25,0.0044
338.5,0.01
338.75,0.0014
339.0,0.1323
339.25,0.0025
339.5,0.0104
339.75,0.0006
340.0,-0.1106
340.25,0.0069
340.5,0.1506
340.75,-0.0002
341.0,0.0231
341.25,-0.0091
341.5,0.0969
341.75,0.0158
342.0,-0.0097
342.25,0.0077
342.5,0.0515
342.75,0.0145
343.0,-0.0041
343.25,0.0045
343.5,0.0003
343.75,-0.0029
344.0,-0.0045
344.25,0.0403
344.5,-0.0206
344.75,0.0261
345.0,0.1578
345.25,0.4032
345.5,0.0067
345.75,0.0139
346.0,-0.0127
346.25,0.0099
346.5,0.0133
346.75,-0.0266
347.0,0.0048
347.25,0.0084
347.5,-0.0143
347.75,0.062
348.0,-0.0035
348.25,0.1307
348.5,-0.0258
348.75,0.7629
349.0,-0.0079
349.25,-0.012
349.5,0.1349
349.75,-0.0016
350.0,-0.0156
350.25,0.0161
350.5,0.1151
350.75,0.0092
351.0,0.0516
351.25,-0.0044
351.5,0.0148
351.75,-0.0749
352.0,-0.0073
352.25,-0.0181
352.5,-0.0029
352.75,0.0529
353.0,0.0089
353.25,-0.0165
353.5,-0.0051
353.75,0.1572
354.0,0.0592
354.25,0.0392
354.5,0.4187
354.75,0.0018
355.0,-0.0116
355.25,-0.0088
355.5,0.0675
355.75,-0.0079
356.0,0.0656
356.25,0.0485
356.5,0.0714
356.75,0.0138
357.0,0.1204
357.25,0.0699
357.5,0.0808
357.75,-0.0092
358.0,0.0149
358.25,-0.0034
358.5,0.0227
358.75,0.0
359.0,-0.0138
359.25,-0.0247
359.5,-0.0089
359.75,0.8016
360.0,0.0056
360.25,0.7715
360.5,0.0696
360.75,-0.009
361.0,0.0026
361.25,-0.0083
361.5,0.0898
361.75,0.0268
362.0,0.0348
362.25,0.0755
362.5,-0.0114
362.75,0.1233
363.0,-0.0039
363.25,0.1592
363.5,0.0036
363.75,-0.0016
364.0,-0.0177
364.25,0.0338
364.5,0.0048
364.75,0.0137
365.0,-0.0081
365.25,-0.0871
365.5,0.0047
365.75,-0.0032
366.0,-0.0015
366.25,0.0021
366.5,-0.0043
366.75,0.0569
367.0,0.3129
367.25,0.0985
367.5,-0.0282
367.75,-0.007
368.0,0.0666
368.25,0.0025
368.5,-0.0055
368.75,0.0678
369.0,-0.0283
369.25,-0.0023
369.5,0.0599
369.75,0.1417
370.0,0.0843
370.25,0.0113
370.5,0.0102
370.75,0.0089
371.0,0.051
371.25,0.0084
371.5,0.7267
371.75,-0.0046
372.0,0.0145
372.25,-0.0039
372.5,-0.0172
372.75,-0.0078
373.0,-0.0278
373.25,0.0059
373.5,0.055
373.75,0.1503
374.0,0.3509
374.25,-0.0
374.5,0.1496
374.75,0.4559
375.0,0.0034
375.25,0.1526
375.5,0.0779
375.75,0.0153
376.0,0.0762
376.25,-0.0956
376.5,0.0026
376.75,0.0121
377.0,0.0135
377.25,0.0108
377.5,0.0748
377.75,0.0023
378.0,0.0126
378.25,0.034
378.5,-0.0338
378.75,0.0633
379.0,0.0117
379.25,0.0096
379.5,0.1586
379.75,0.0045
380.0,0.0619
380.25,0.0168
380.5,0.0619
380.75,-0.0071
381.0,-0.014
381.25,-0.003
381.5,0.0155
381.75,0.0074
382.0,0.0055
382.25,0.0689
382.5,-0.0196
382.75,-0.0017
383.0,0.1306
383.25,0.5342
383.5,0.4948
383.75,0.0047
384.0,0.0859
384.25,0.0138
384.5,-0.0005
384.75,-0.0109
385.0,-0.0111
385.25,0.0976
385.5,0.0106
385.75,0.1135
386.0,0.0094
386.25,-0.006
386.5,0.0096
386.75,-0.0283
387.0,-0.0077
387.25,0.1383
387.5,0.0863
387.75,0.1368
388.0,-0.006
388.25,0.0017
388.5,-0.0088
388.75,0.0565
389.0,0.1364
389.25,0.0069
389.5,0.0941
389.75,0.0221
390.0,0.0105
390.25,0.001
390.5,-0.0001
390.75,0.0085
391.0,-0.0219
391.25,0.0218
391.5,0.1502
391.75,0.0024
392.0,0.0185
392.25,0.0132
392.5,-0.0184
392.75,0.0418
393.0,0.0115
393.25,-0.0123
393.5,0.0889
393.75,0.0417
394.0,-0.0146
394.25,-0.116
394.5,0.0317
394.75,0.5189
395.0,0.0828
395.25,0.0076
395.5,-0.0042
395.75,0.0043
396.0,0.097
396.25,0.0298
396.5,-0.0047
396.75,-0.0244
397.0,-0.0009
397.25,-0.0046
397.5,0.0019
397.75,0.0613
398.0,-0.0186
398.25,0.0808
398.5,-0.0068
398.75,-0.0081
399.0,0.0153
399.25,0.1515
399.5,0.7832
399.75,0.0789
400.0,0.0324
400.25,0.0003
400.5,-0.0128
400.75,-0.0051
401.0,0.0149
401.25,0.795
401.5,-0.0353
401.75,0.1435
402.0,0.0212
402.25,0.0119
402.5,-0.0144
402.75,0.8021
403.0,-0.0243
403.25,-0.0005
403.5,-0.0012
403.75,0.0909
404.0,0.0008
404.25,-0.1036
404.5,-0.0109
404.75,-0.0009
405.0,0.0124
405.25,-0.0003
405.5,-0.0152
405.75,0.0577
406.0,-0.0105
406.25,0.0872
406.5,0.0082
406.75,-0.0129
407.0,0.0545
407.25,-0.007
407.5,0.0701
407.75,0.0124
408.0,-0.0096
408.25,0.022
408.5,0.1079
408.75,0.123
409.0,0.0241
409.25,0.0073
409.5,0.0029
409.75,0.0972
410.0,0.0019
410.25,-0.0009
410.5,0.078
410.75,0.1564
411.0,-0.1235
411.25,0.5592
411.5,0.0122
411.75,0.0042
412.0,0.1485
412.25,-0.008
412.5,0.0847
412.75,0.0028
413.0,-0.0092
413.25,-0.0129
413.5,0.009
413.75,0.0663
414.0,0.02
414.25,0.047
414.5,0.0145
414.75,0.6691
415.0,0.0143
415.25,-0.0342
415.5,0.0256
415.75,0.052
416.0,0.0032
416.25,-0.0048
416.5,0.0139
416.75,0.0059
417.0,0.0079
417.25,0.017
417.5,0.02
417.75,-0.0107
418.0,0.1284
418.25,-0.0038
418.5,0.0026
418.75,-0.0012
419.0,0.0767
419.25,0.0373
419.5,0.0557
419.75,0.0041
420.0,0.0185
420.25,0.0249
420.5,-0.0152
420.75,-0.0161
421.0,0.0298
421.25,0.0091
421.5,-0.0223
421.75,-0.0175
422.0,0.0232
422.25,-0.0008
422.5,0.1361
422.75,0.0131
423.0,-0.005
423.25,0.1456
423.5,-0.006
423.75,0.0223
424.0,0.0471
424.25,0.0197
424.5,0.0054
424.75,-0.0065
425.0,0.0167
425.25,0.133
425.5,0.1111
425.75,0.0357
426.0,-0.0012
426.25,0.0024
426.5,-0.0171
426.75,0.0101
427.0,0.1316
427.25,0.1303
427.5,0.0032
427.75,0.0002
428.0,0.0101
428.25,0.013
428.5,0.0552
428.75,0.7579
429.0,0.0188
429.25,0.0327
429.5,-0.0147
429.75,-0.0133
430.0,0.0212
430.25,0.1527
430.5,0.0492
430.75,-0.0105
431.0,0.0051
431.25,0.0062
431.5,0.0058
431.75,-0.0094
432.0,0.0593
432.25,0.064
432.5,0.0851
432.75,0.1232
433.0,0.1076
433.25,-0.0194
433.5,0.0695
433.75,0.0106
434.0,0.1058
434.25,0.0125
434.5,0.0086
434.75,0.0094
435.0,-0.0016
435.25,-0.0058
435.5,-0.0028
435.75,0.0332
436.0,0.0063
436.25,-0.0119
436.5,-0.0024
436.75,-0.0067
437.0,0.0319
437.25,-0.0026
437.5,0.0246
437.75,-0.0301
438.0,-0.1182
438.25,0.0034
438.5,-0.003
438.75,0.0241
439.0,0.0009
439.25,-0.0233
439.5,0.0524
439.75,0.7413
440.0,0.7539
440.25,0.0147
440.5,0.0121
440.75,-0.0031
441.0,-0.0056
441.25,0.0377
441.5,0.002
441.75,-0.0174
442.0,0.1421
442.25,0.0033
442.5,0.0028
442.75,0.1019
443.0,0.0087
443.25,0.5684
443.5,0.0004
443.75,0.0098
444.0,0.0112
444.25,0.0091
444.5,0.0193
444.75,0.003
445.0,0.0303
445.25,0.004
445.5,0.0043
445.75,0.1426
446.0,0.0002
446.25,0.0795
446.5,0.0021
446.75,-0.0069
447.0,-0.0054
447.25,0.1294
447.5,0.0122
447.75,-0.0623
448.0,-0.0121
448.25,0.0404
448.5,-0.0135
448.75,0.0034
449.0,0.001
449.25,-0.0056
449.5,-0.012
449.75,0.0063
450.0,0.008
450.25,0.0107
450.5,0.1145
450.75,0.0764
451.0,0.1249
451.25,-0.0473
451.5,0.0636
451.75,0.0096
452.0,-0.0091
452.25,-0.0055
452.5,0.0145
452.75,0.0175
453.0,0.0115
453.25,0.0121
453.5,-0.0155
453.75,0.0139
454.0,-0.0171
454.25,0.0589
454.5,0.0024
454.75,0.0265
455.0,0.0978
455.25,-0.0073
455.5,0.1605
455.75,-0.0069
456.0,0.0017
456.25,-0.0072
456.5,0.1113
456.75,0.0251
457.0,0.1505
457.25,0.0001
457.5,-0.0157
457.75,0.0682
458.0,0.0123
458.25,-0.0013
458.5,0.1461
458.75,0.046
459.0,0.1332
459.25,-0.0107
459.5,-0.015
459.75,0.0297
460.0,0.0086
460.25,0.0185
460.5,0.0155
460.75,0.0838
461.0,-0.0034
461.25,0.0157
461.5,0.0142
461.75,-0.02
462.0,0.1006
462.25,0.0079
462.5,0.0744
462.75,0.0504
463.0,-0.0115
463.25,0.1531
463.5,0.1007
463.75,0.0112
464.0,0.0047
464.25,-0.0089
464.5,0.1449
464.75,0.069
465.0,-0.0046
465.25,0.0603
465.5,-0.0097
465.75,-0.0221
466.0,-0.1254
466.25,0.1375
466.5,0.0306
466.75,-0.0007
467.0,0.0883
467.25,0.0039
467.5,-0.0121
467.75,0.0118
468.0,0.0248
468.25,0.0678
468.5,0.1481
468.75,-0.0011
469.0,-0.0158
469.25,0.1441
469.5,0.0876
469.75,0.078
470.0,0.0162
470.25,-0.0011
470.5,-0.0058
470.75,0.0424
471.0,-0.0237
471.25,-0.005
471.5,0.0025
471.75,0.0038
472.0,0.0079
472.25,-0.003
472.5,-0.0039
472.75,-0.007
473.0,0.0165
473.25,0.0207
473.5,0.053
473.75,0.0144
474.0,0.1179
474.25,0.3829
474.5,0.0237
474.75,0.0088
475.0,0.0273
475.25,-0.0053
475.5,-0.0015
475.75,0.0608
476.0,0.0783
476.25,0.0103
476.5,0.0182
476.75,-0.0011
477.0,0.027
477.25,0.1439
477.5,-0.0062
477.75,0.0022
478.0,0.0611
478.25,0.0421
478.5,0.005
478.75,0.0986
479.0,-0.004
479.25,-0.0157
479.5,-0.0052
479.75,0.1535
480.0,0.0077
480.25,-0.1019
480.5,0.0151
480.75,-0.0065
481.0,0.0715
481.25,-0.0126
481.5,0.078
481.75,-0.0191
482.0,-0.0041
482.25,-0.0096
482.5,-0.02
482.75,0.0304
483.0,0.007
483.25,-0.0044
483.5,0.011
483.75,0.089
484.0,0.0178
484.25,0.0023
484.5,0.0108
484.75,0.0374
485.0,-0.0044
485.25,0.0161
485.5,-0.0662
485.75,0.0465
486.0,-0.0066
486.25,0.0093
486.5,0.0543
486.75,0.0649
487.0,0.7373
487.25,-0.0289
487.5,-0.0112
487.75,0.0121
488.0,0.3351
488.25,0.0411
488.5,0.0127
488.75,0.0894
489.0,0.1076
489.25,0.1639
489.5,0.0019
489.75,0.0735
490.0,-0.0042
490.25,0.0846
490.5,0.4552
490.75,0.0482
491.0,0.1402
491.25,0.0037
491.5,-0.0057
491.75,-0.0416
492.0,-0.0111
492.25,-0.0031
492.5,0.1473
492.75,-0.0114
493.0,0.069
493.25,0.0173
493.5,0.635
493.75,0.1391
494.0,0.051
494.25,0.0038
494.5,0.0058
494.75,-0.0008
495.0,0.0957
495.25,-0.0422
495.5,0.0514
495.75,0.5498
496.0,-0.0
496.25,0.0038
496.5,0.0009
496.75,-0.0064
497.0,0.0034
497.25,-0.0288
497.5,-0.0065
497.75,0.1456
498.0,0.0602
498.25,-0.0082
498.5,0.7629
498.75,0.0083
499.0,0.0022
499.25,0.1079
499.5,-0.0116
499.75,-0.0063
500.0,-0.0157
500.25,0.0115
500.5,0.0041
500.75,0.0975
501.0,-0.0128
501.25,0.0105
501.5,0.0059
501.75,-0.0045
502.0,0.0021
502.25,0.0873
502.5,0.0067
502.75,0.0103
503.0,0.4753
503.25,0.4859
503.5,0.1187
503.75,-0.0173
504.0,-0.0152
504.25,-0.0098
504.5,-0.0061
504.75,0.0036
505.0,0.0563
505.25,0.5789
505.5,0.0164
505.75,0.0028
506.0,0.0977
506.25,0.084
506.5,0.6419
506.75,0.0189
507.0,0.0141
507.25,0.0089
507.5,0.0253
507.75,0.1918
508.0,-0.0091
508.25,0.0645
508.5,0.4925
508.75,0.1007
509.0,-0.0094
509.25,0.7853
509.5,0.0023
509.75,-0.0036
510.0,0.0107
510.25,0.0563
510.5,0.0004
510.75,-0.0165
511.0,-0.0227
511.25,0.0151
511.5,0.5462
511.75,-0.0069
512.0,0.0897
512.25,0.06
512.5,0.0156
512.75,0.0177
513.0,-0.0236
513.25,0.4637
513.5,-0.0189
513.75,0.0196
514.0,0.071
514.25,-0.012
514.5,-0.0423
514.75,0.0002
515.0,-0.0146
515.25,0.5606
515.5,0.0703
515.75,0.0046
516.0,0.1452
516.25,0.0343
516.5,0.7615
516.75,0.0747
517.0,0.145
517.25,0.0438
517.5,-0.0052
517.75,0.0062
518.0,0.0004
518.25,0.0079
518.5,-0.0213
518.75,-0.0057
519.0,0.0594
519.25,0.7093
519.5,-0.0023
519.75,-0.0041
520.0,0.0119
520.25,0.1326
520.5,0.1508
520.75,-0.0039
521.0,0.0197
521.25,0.1365
521.5,0.0493
521.75,-0.0503
522.0,0.3893
522.25,0.139
522.5,0.0011
522.75,0.0014
523.0,0.0722
523.25,-0.0173
523.5,-0.0065
523.75,0.0032
524.0,0.0691
524.25,0.0004
524.5,0.0383
524.75,0.0153
525.0,0.0187
525.25,0.083
525.5,0.0577
525.75,0.089
526.0,0.0063
526.25,0.001
526.5,0.002
526.75,0.0151
527.0,0.0228
527.25,0.0852
527.5,0.0195
527.75,0.0997
528.0,0.0859
528.25,0.7896
528.5,0.006
528.75,0.3266
529.0,0.0071
529.25,-0.1174
529.5,-0.0055
529.75,0.1435
530.0,-0.0043
530.25,0.0063
530.5,0.0668
530.75,0.0927
531.0,0.0051
531.25,-0.0341
531.5,-0.0054
531.75,0.0595
532.0,0.0087
532.25,0.5197
532.5,-0.0724
532.75,0.0608
533.0,0.0065
533.25,0.0129
533.5,0.1316
533.75,0.107
534.0,0.0039
534.25,0.0496
534.5,-0.0097
534.75,-0.0012
535.0,-0.0126
535.25,-0.0105
535.5,-0.0002
535.75,0.0175
536.0,-0.0049
536.25,0.0213
536.5,0.0444
536.75,-0.0006
537.0,-0.0124
537.25,-0.0273
537.5,-0.0239
537.75,-0.0074
538.0,0.0041
538.25,0.1381
538.5,0.6757
538.75,0.1292
539.0,0.1196
539.25,0.17
539.5,-0.0103
539.75,0.0007
540.0,-0.0094
540.25,0.008
540.5,0.0232
540.75,0.1506
541.0,0.0692
541.25,0.0528
541.5,0.0995
541.75,0.0565
542.0,0.0141
542.25,0.0543
542.5,0.0307
542.75,-0.0174
543.0,0.0123
543.25,0.0879
543.5,-0.0081
543.75,0.5929
544.0,0.0975
544.25,0.0161
544.5,0.0451
544.75,0.061
545.0,0.0029
545.25,0.0111
545.5,0.0053
545.75,-0.0028
546.0,0.0112
546.25,0.0679
546.5,0.097
546.75,-0.0101
547.0,-0.0072
547.25,0.0816
547.5,-0.0403
547.75,0.0099
548.0,-0.0177
548.25,-0.0141
548.5,0.0159
548.75,0.0164
549.0,0.0127
549.25,0.0776
549.5,-0.0027
549.75,0.0033
550.0,0.1676
550.25,0.0028
550.5,0.7773
550.75,-0.0041
551.0,-0.0051
551.25,-0.0083
551.5,0.0015
551.75,0.0002
552.0,0.5926
552.25,0.0069
552.5,0.1356
552.75,0.1389
553.0,-0.0063
553.25,-0.0111
553.5,0.0588
553.75,-0.0054
554.0,0.0066
554.25,0.0505
554.5,0.0014
554.75,0.0626
555.0,0.2381
555.25,0.0696
555.5,-0.0105
555.75,-0.0008
556.0,-0.0043
556.25,0.0876
556.5,0.0031
556.75,0.7258
557.0,0.1092
557.25,-0.0533
557.5,0.0243
557.75,0.0776
558.0,0.085
558.25,0.0083
558.5,0.0631
558.75,0.1171
559.0,0.0809
559.25,0.0196
559.5,-0.0034
559.75,-0.0053
560.0,0.1226
560.25,0.002
560.5,0.093
560.75,0.0457
561.0,-0.0362
561.25,0.569
561.5,0.0153
561.75,0.7665
562.0,-0.0132
562.25,0.1576
562.5,-0.0112
562.75,0.0524
563.0,0.5802
563.25,0.0322
563.5,-0.0174
563.75,0.0122
564.0,0.0834
564.25,0.4857
564.5,0.0094
564.75,0.1582
565.0,0.0298
565.25,0.1353
565.5,-0.007
565.75,0.0021
566.0,0.0455
566.25,-0.0011
566.5,0.0005
566.75,-0.0044
567.0,0.0538
567.25,0.0119
567.5,0.0179
567.75,0.1414
568.0,-0.0044
568.25,0.158
568.5,-0.0085
568.75,0.0055
569.0,0.0487
569.25,0.0265
569.5,0.0189
569.75,0.0044
570.0,-0.0999
570.25,0.0102
570.5,0.0748
570.75,-0.109
571.0,-0.0121
571.25,0.0756
571.5,0.0738
571.75,0.7153
572.0,-0.0087
572.25,0.3993
572.5,-0.0151
572.75,-0.0022
573.0,0.4549
573.25,0.0048
573.5,0.0142
573.75,0.0077
574.0,0.1288
574.25,0.0836
574.5,-0.0264
574.75,-0.0036
575.0,0.009
575.25,-0.1161
575.5,-0.0242
575.75,0.0629
576.0,0.0548
576.25,0.0758
576.5,-0.0163
576.75,0.0001
577.0,-0.0201
577.25,-0.0047
577.5,0.0446
577.75,0.1181
578.0,0.0307
578.25,0.0277
578.5,0.0037
578.75,-0.0126
579.0,0.0533
579.25,-0.0063
579.5,0.144
579.75,-0.0131
580.0,-0.0004
580.25,0.0618
580.5,-0.0099
580.75,0.0471
581.0,0.0029
581.25,0.0474
581.5,0.1381
581.75,0.07
582.0,0.0537
582.25,0.0043
582.5,-0.0132
582.75,-0.0038
583.0,0.0122
583.25,0.0117
583.5,-0.0021
583.75,0.0165
584.0,-0.1075
584.25,0.0048
584.5,0.0713
584.75,0.0265
585.0,-0.0075
585.25,0.0659
585.5,0.049
585.75,-0.0125
586.0,0.0131
586.25,-0.0323
586.5,-0.0001
586.75,0.1289
587.0,0.1381
587.25,0.1113
587.5,0.0524
587.75,0.0033
588.0,-0.0294
588.25,-0.0384
588.5,0.1295
588.75,0.2148
589.0,-0.0055
589.25,0.0583
589.5,-0.0055
589.75,0.0155
590.0,0.0216
590.25,0.0023
590.5,-0.0209
590.75,0.1243
591.0,-0.021
591.25,0.0028
591.5,0.0155
591.75,-0.0011
592.0,0.0571
592.25,-0.0482
592.5,0.1262
592.75,-0.0009
593.0,0.0156
593.25,0.0072
593.5,0.005
593.75,0.0368
594.0,0.0172
594.25,0.013
594.5,0.001
594.75,0.5023
595.0,-0.004
595.25,0.0919
595.5,-0.0006
595.75,0.0141
596.0,0.1057
596.25,0.0721
596.5,-0.0051
596.75,0.1184
597.0,0.3905
597.25,-0.0484
597.5,-0.0092
597.75,0.1778
598.0,-0.0051
598.25,-0.0009
598.5,0.0104
598.75,0.0089
599.0,0.0134
599.25,0.0728
599.5,0.085
599.75,0.0467
600.0,0.0075
600.25,0.1235
600.5,0.0973
600.75,-0.0055
601.0,-0.0285
601.25,0.001
601.5,0.0246
601.75,-0.0022
602.0,-0.0094
602.25,-0.0087
602.5,0.1567
602.75,0.1359
603.0,0.0059
603.25,0.026
603.5,0.0207
603.75,0.006
604.0,0.1452
604.25,0.0059
604.5,-0.0077
604.75,0.0164
605.0,0.0879
605.25,0.0639
605.5,0.0126
605.75,0.1468
606.0,-0.0038
606.25,0.0069
606.5,0.139
606.75,0.0156
607.0,0.07
607.25,-0.0037
607.5,0.0747
607.75,0.104
608.0,0.0164
608.25,0.0043
608.5,0.7202
608.75,0.075
609.0,-0.0098
609.25,-0.0015
609.5,0.0775
609.75,-0.013
610.0,0.157
610.25,0.0138
610.5,0.0322
610.75,0.0107
611.0,-0.015
611.25,-0.0163
611.5,0.0214
611.75,0.061
612.0,0.0156
612.25,0.0011
612.5,0.0002
612.75,0.1439
613.0,0.0624
613.25,0.0125
613.5,0.2654
613.75,0.0591
614.0,0.1463
614.25,0.0133
614.5,-0.0201
614.75,-0.0044
615.0,0.106
615.25,0.0024
615.5,0.0047
615.75,0.004
616.0,0.0961
616.25,0.0542
616.5,0.7611
616.75,-0.0189
617.0,-0.0045
617.25,-0.0067
617.5,0.0049
617.75,0.0256
618.0,0.0112
618.25,0.0001
618.5,0.0338
618.75,0.0773
619.0,0.0147
619.25,0.1176
619.5,0.066
619.75,0.0013
620.0,0.0793
620.25,0.1503
620.5,0.002
620.75,-0.0041
621.0,-0.0002
621.25,0.0083
621.5,0.4135
621.75,0.0069
622.0,0.0176
622.25,-0.0134
622.5,-0.0035
622.75,-0.0374
623.0,0.01
623.25,-0.0139
623.5,0.1496
623.75,0.0195
624.0,0.1285
624.25,-0.0271
624.5,-0.0051
624.75,0.0042
625.0,0.4817
625.25,0.0434
625.5,0.0123
625.75,0.1504
626.0,0.0732
626.25,0.3821
626.5,-0.0169
626.75,-0.0194
627.0,-0.0058
627.25,-0.0007
627.5,0.3727
627.75,0.0346
628.0,0.0003
628.25,0.1344
628.5,0.0181
628.75,0.0745
629.0,0.0332
629.25,-0.027
629.5,-0.0014
629.75,0.0156
630.0,0.1424
630.25,-0.0067
630.5,0.0043
630.75,0.077
631.0,0.0197
631.25,0.1055
631.5,0.1326
631.75,0.1
632.0,0.0647
632.25,0.0242
632.5,-0.0141
632.75,0.0496
633.0,-0.0267
633.25,0.0491
633.5,0.0849
633.75,0.2873
634.0,0.0081
634.25,-0.001
634.5,0.0061
634.75,-0.0045
635.0,-0.0016
635.25,-0.0141
635.5,0.0106
635.75,-0.0267
636.0,-0.0231
636.25,-0.0167
636.5,0.0242
636.75,0.022
637.0,0.1557
637.25,0.0269
637.5,0.1175
637.75,0.0635
638.0,0.0048
638.25,0.0049
638.5,-0.003
638.75,0.1461
639.0,0.0152
639.25,0.1407
639.5,-0.0023
639.75,-0.0013
640.0,0.0526
640.25,-0.0063
640.5,0.0042
640.75,0.1299
641.0,0.0091
641.25,0.1334
641.5,0.0048
641.75,0.0513
642.0,-0.012
642.25,0.0203
642.5,0.0156
642.75,0.1525
643.0,-0.1074
643.25,0.0107
643.5,-0.0144
643.75,0.0946
644.0,0.0608
644.25,0.0872
644.5,0.1384
644.75,0.0082
645.0,0.0054
645.25,0.0906
645.5,0.0718
645.75,0.0105
646.0,-0.0055
646.25,0.0149
646.5,0.047
646.75,0.0107
647.0,-0.0071
647.25,0.1514
647.5,0.0053
647.75,0.0387
648.0,-0.006
648.25,0.0471
648.5,0.0224
648.75,0.0765
649.0,0.0691
649.25,0.0582
649.5,0.0032
649.75,0.0161
650.0,0.0135
650.25,-0.0277
650.5,0.4612
650.75,0.0823
651.0,0.0014
651.25,0.0132
651.5,0.0147
651.75,-0.0024
652.0,0.0017
652.25,0.0704
652.5,-0.0094
652.75,-0.0318
653.0,0.0102
653.25,0.0138
653.5,0.0003
653.75,-0.003
654.0,-0.0181
654.25,-0.0134
654.5,-0.0161
654.75,0.0243
655.0,0.3357
655.25,-0.0017
655.5,-0.1178
655.75,0.1202
656.0,-0.0004
656.25,0.0148
656.5,0.0118
656.75,0.0112
657.0,0.0703
657.25,-0.0135
657.5,0.0735
657.75,0.0065
658.0,0.0137
658.25,0.0843
658.5,0.0248
658.75,0.007
659.0,-0.0035
659.25,-0.01
659.5,0.0527
659.75,0.0003
