time,ecg
0.0,0.0007
0.25,0.0292
0.5,-0.011
0.75,0.0095
1.0,-0.0138
1.25,0.0401
1.5,0.0383
1.75,-0.0142
2.0,0.1528
2.25,-0.0045
2.5,-0.0086
2.75,0.003
3.0,0.001
3.25,0.0438
3.5,0.1491
3.75,-0.0009
4.0,0.0613
4.25,0.0193
4.5,-0.0063
4.75,-0.005
5.0,0.0084
5.25,0.1467
5.5,0.0251
5.75,-0.0161
6.0,0.0129
6.25,0.0236
6.5,0.3641
6.75,-0.0052
7.0,0.0025
7.25,0.0132
7.5,-0.0215
7.75,-0.0186
8.0,0.0094
8.25,0.0733
8.5,-0.0056
8.75,0.025
9.0,-0.0019
9.25,0.0002
9.5,0.8027
9.75,-0.0146
10.0,0.0213
10.25,-0.0079
10.5,-0.0082
10.75,0.0277
11.0,0.1166
11.25,-0.0044
11.5,0.7968
11.75,0.0727
12.0,0.0121
12.25,0.0044
12.5,0.1516
12.75,-0.0039
13.0,0.0012
13.25,0.0089
13.5,-0.0028
13.75,0.0087
14.0,-0.0213
14.25,0.0305
14.5,0.0076
14.75,-0.0129
15.0,-0.0204
15.25,-0.0141
15.5,0.0008
15.75,0.0341
16.0,0.0716
16.25,0.064
16.5,0.0459
16.75,0.0959
17.0,0.0107
17.25,-0.0042
17.5,0.0047
17.75,0.0787
18.0,-0.049
18.25,0.0436
18.5,0.0116
18.75,0.0803
19.0,-0.0266
19.25,0.1553
19.5,-0.0153
19.75,0.0951
20.0,0.0324
20.25,0.0877
20.5,0.036
20.75,0.1432
21.0,0.1257
21.25,0.0933
21.5,0.1349
21.75,0.7313
22.0,0.7533
22.25,0.0428
22.5,-0.0002
22.75,0.0719
23.0,0.017
23.25,-0.0038
23.5,-0.1319
23.75,0.1482
24.0,-0.0068
24.25,0.0975
24.5,0.0109
24.75,0.015
25.0,0.0021
25.25,0.0768
25.5,0.0187
25.75,-0.0274
26.0,0.0179
26.25,0.0397
26.5,0.0196
26.75,-0.0067
27.0,0.0447
27.25,0.0875
27.5,-0.0095
27.75,-0.0208
28.0,0.0008
28.25,0.0044
28.5,0.0052
28.75,0.1133
29.0,0.7798
29.25,0.4927
29.5,0.0244
29.75,-0.0054
30.0,0.0516
30.25,-0.0107
30.5,-0.0008
30.75,0.0224
31.0,-0.0098
31.25,0.0643
31.5,0.0968
31.75,-0.0096
32.0,0.102
32.25,0.0939
32.5,-0.0164
32.75,0.0245
33.0,-0.0188
33.25,0.0218
33.5,0.0728
33.75,0.0121
34.0,-0.0038
34.25,0.0075
34.5,0.1329
34.75,0.0753
35.0,0.0142
35.25,0.0064
35.5,0.0344
35.75,-0.0949
36.0,0.0297
36.25,0.0008
36.5,-0.0147
36.75,0.002
37.0,0.0002
37.25,0.0067
37.5,0.0457
37.75,0.0136
38.0,0.0422
38.25,-0.01
38.5,-0.022
38.75,0.0717
39.0,0.0521
39.25,-0.0174
39.5,0.0426
39.75,0.0119
40.0,0.7867
40.25,0.1261
40.5,0.0049
40.75,0.1596
41.0,0.0233
41.25,0.0136
41.5,0.0004
41.75,0.0657
42.0,0.0166
42.25,-0.0094
42.5,0.0064
42.75,-0.0118
43.0,0.121
43.25,-0.0041
43.5,0.1619
43.75,0.0221
44.0,0.3585
44.25,-0.0089
44.5,-0.0164
44.75,-0.0013
45.0,-0.0057
45.25,0.0024
45.5,0.0662
45.75,-0.0111
46.0,0.0926
46.25,0.1091
46.5,-0.004
46.75,0.0228
47.0,0.006
47.25,0.004
47.5,0.0106
47.75,-0.0147
48.0,-0.0055
48.25,0.0098
48.5,-0.0081
48.75,0.0208
49.0,0.0526
49.25,0.1146
49.5,0.0985
49.75,-0.008
50.0,0.0018
50.25,-0.0227
50.5,0.0096
50.75,-0.0031
51.0,0.0571
51.25,0.0131
51.5,-0.0059
51.75,0.1472
52.0,0.0044
52.25,0.0379
52.5,-0.0109
52.75,0.013
53.0,-0.0035
53.25,0.0047
53.5,0.0527
53.75,0.0411
54.0,0.011
54.25,-0.0085
54.5,0.0113
54.75,-0.0077
55.0,0.0586
55.25,0.0838
55.5,-0.0052
55.75,-0.1283
56.0,0.0703
56.25,0.5441
56.5,-0.0416
56.75,-0.0131
57.0,-0.0031
57.25,0.0417
57.5,0.6835
57.75,-0.0107
58.0,0.0088
58.25,-0.0086
58.5,0.0495
58.75,-0.0116
59.0,0.7962
59.25,0.0807
59.5,0.01
59.75,0.0233
60.0,0.0103
60.25,0.0097
60.5,0.1401
60.75,0.1329
61.0,0.0082
61.25,0.0972
61.5,0.0256
61.75,0.0475
62.0,0.0969
62.25,0.0354
62.5,0.0047
62.75,-0.0018
63.0,0.0132
63.25,0.0719
63.5,0.0157
63.75,0.0031
64.0,-0.0012
64.25,-0.0154
64.5,0.0701
64.75,0.3638
65.0,0.0832
65.25,0.0028
65.5,0.0668
65.75,0.02
66.0,0.0139
66.25,0.5287
66.5,-0.0088
66.75,0.0103
67.0,0.031
67.25,0.0078
67.5,0.0231
67.75,0.0272
68.0,0.0606
68.25,0.0877
68.5,-0.0013
68.75,0.1118
69.0,0.0625
69.25,0.0041
69.5,0.0037
69.75,-0.0037
70.0,0.0257
70.25,0.0047
70.5,0.1376
70.75,0.0511
71.0,0.7883
71.25,0.0812
71.5,-0.005
71.75,0.0551
72.0,0.0132
72.25,-0.0145
72.5,-0.0036
72.75,-0.0145
73.0,0.0399
73.25,0.0878
73.5,-0.0251
73.75,0.0162
74.0,0.1319
74.25,0.0233
74.5,-0.0031
74.75,0.7812
75.0,0.0214
75.25,-0.0533
75.5,0.0069
75.75,0.009
76.0,0.0414
76.25,-0.012
76.5,0.134
76.75,0.0083
77.0,0.0025
77.25,-0.1024
77.5,0.5223
77.75,0.0351
78.0,0.0175
78.25,-0.0994
78.5,0.1044
78.75,-0.0186
79.0,-0.0195
79.25,0.0785
79.5,0.0187
79.75,0.1461
80.0,0.1128
80.25,0.018
80.5,0.0125
80.75,0.0208
81.0,0.0206
81.25,0.0122
81.5,0.0242
81.75,0.1654
82.0,-0.005
82.25,0.001
82.5,-0.0007
82.75,0.0033
83.0,0.0174
83.25,0.1156
83.5,-0.0131
83.75,0.7883
84.0,0.0889
84.25,0.0446
84.5,-0.0156
84.75,0.1678
85.0,0.092
85.25,-0.0123
85.5,-0.0352
85.75,0.0044
86.0,0.0246
86.25,-0.0121
86.5,-0.0173
86.75,0.0035
87.0,0.0319
87.25,0.0539
87.5,-0.0062
87.75,-0.0047
88.0,0.0118
88.25,-0.0083
88.5,-0.0193
88.75,-0.0097
89.0,-0.0031
89.25,0.0358
89.5,-0.006
89.75,0.0204
90.0,0.0017
90.25,0.002
90.5,0.0385
90.75,0.1292
91.0,0.0398
91.25,0.0895
91.5,-0.0034
91.75,0.0533
92.0,-0.0054
92.25,0.031
92.5,0.0662
92.75,0.0411
93.0,0.0703
93.25,-0.0082
93.5,0.0594
93.75,-0.0098
94.0,0.0035
94.25,0.1215
94.5,0.1417
94.75,0.0185
95.0,0.0044
95.25,0.0056
95.5,0.0478
95.75,-0.0075
96.0,-0.0172
96.25,-0.0003
96.5,0.0005
96.75,0.0617
97.0,0.0401
97.25,-0.0234
97.5,0.0207
97.75,-0.0173
98.0,-0.017
98.25,0.0001
98.5,0.012
98.75,-0.0018
99.0,0.1265
99.25,0.0098
99.5,-0.0077
99.75,-0.0002
100.0,-0.1304
100.25,-0.0035
100.5,0.0138
100.75,-0.0039
101.0,0.0723
101.25,0.001
101.5,0.7739
101.75,-0.0372
102.0,0.1375
102.25,0.152
102.5,0.0137
102.75,-0.1272
103.0,-0.0016
103.25,0.0154
103.5,-0.0136
103.75,0.0041
104.0,0.081
104.25,-0.0175
104.5,-0.0004
104.75,0.0699
105.0,0.0263
105.25,0.0041
105.5,0.0637
105.75,0.0233
106.0,0.0824
106.25,0.1003
106.5,-0.0039
106.75,-0.0121
107.0,0.1485
107.25,-0.0033
107.5,0.1147
107.75,0.0636
108.0,0.1582
108.25,-0.0155
108.5,0.05
108.75,0.04
109.0,0.0128
109.25,0.0029
109.5,0.0049
109.75,-0.0008
110.0,0.1351
110.25,-0.0178
110.5,-0.1012
110.75,0.0129
111.0,-0.0084
111.25,0.1012
111.5,0.0565
111.75,0.001
112.0,0.0842
112.25,0.1331
112.5,0.0873
112.75,-0.033
113.0,0.0407
113.25,-0.1196
113.5,-0.0332
113.75,-0.0008
114.0,0.0066
114.25,-0.0023
114.5,0.0576
114.75,0.0924
115.0,-0.0013
115.25,-0.0082
115.5,-0.0206
115.75,-0.0014
116.0,0.0592
116.25,0.1503
116.5,0.6179
116.75,-0.0123
117.0,0.7928
117.25,0.1333
117.5,0.2664
117.75,-0.0012
118.0,0.0524
118.25,-0.0015
118.5,-0.0001
118.75,0.1114
119.0,0.0446
119.25,0.0115
119.5,0.0271
119.75,0.0105
120.0,0.0318
120.25,0.0615
120.5,-0.0028
120.75,0.0163
121.0,0.0677
121.25,0.0187
121.5,0.3723
121.75,-0.0189
122.0,-0.0089
122.25,0.1584
122.5,0.012
122.75,-0.0095
123.0,-0.014
123.25,0.0151
123.5,0.0018
123.75,-0.0052
124.0,-0.1069
124.25,-0.0091
124.5,0.0066
124.75,0.0887
125.0,-0.002
125.25,0.002
125.5,-0.0088
125.75,-0.0102
126.0,0.0053
126.25,0.0762
126.5,-0.048
126.75,-0.0213
127.0,0.052
127.25,-0.0045
127.5,-0.0068
127.75,-0.0061
128.0,0.004
128.25,-0.0223
128.5,0.3449
128.75,0.0688
129.0,0.0339
129.25,0.0984
129.5,0.0991
129.75,0.0009
130.0,0.1339
130.25,0.1098
130.5,0.012
130.75,0.0696
131.0,0.0282
131.25,-0.0011
131.5,-0.0062
131.75,0.0062
132.0,-0.0038
132.25,-0.009
132.5,0.8094
132.75,-0.0104
133.0,0.0802
133.25,-0.0029
133.5,-0.0007
133.75,0.0628
134.0,0.0164
134.25,0.0612
134.5,-0.0019
134.75,-0.0065
135.0,0.1226
135.25,0.0254
135.5,-0.0805
135.75,-0.0169
136.0,0.0965
136.25,-0.0002
136.5,0.5757
136.75,0.0025
137.0,0.0006
137.25,-0.0224
137.5,-0.0071
137.75,0.0187
138.0,0.0351
138.25,-0.0051
138.5,-0.0059
138.75,0.0011
139.0,0.7606
139.25,0.0029
139.5,0.0208
139.75,-0.0126
140.0,0.0858
140.25,0.0008
140.5,0.1403
140.75,-0.0021
141.0,0.1407
141.25,0.1559
141.5,0.0756
141.75,-0.0064
142.0,0.153
142.25,0.0111
142.5,-0.0023
142.75,0.0373
143.0,-0.0038
143.25,0.01
143.5,0.0073
143.75,0.005
144.0,-0.0112
144.25,0.0809
144.5,-0.01
144.75,-0.0086
145.0,0.0075
145.25,0.0139
145.5,0.1066
145.75,0.0418
146.0,0.1168
146.25,-0.0026
146.5,0.0428
146.75,-0.0014
147.0,0.0214
147.25,-0.0033
147.5,0.0126
147.75,-0.0004
148.0,0.1529
148.25,-0.0044
148.5,-0.0102
148.75,0.013
149.0,0.0623
149.25,-0.1062
149.5,-0.0041
149.75,0.0304
150.0,-0.0003
150.25,0.0167
150.5,-0.0086
150.75,0.0156
151.0,0.0051
151.25,-0.0047
151.5,-0.0059
151.75,0.0001
152.0,0.8072
152.25,0.0736
152.5,0.1262
152.75,0.102
153.0,-0.0063
153.25,0.0865
153.5,-0.0352
153.75,0.0943
154.0,0.0009
154.25,0.0886
154.5,-0.0009
154.75,0.0335
155.0,0.0422
155.25,0.0903
155.5,0.0317
155.75,0.0017
156.0,0.0233
156.25,0.1264
156.5,0.1452
156.75,0.7621
157.0,-0.0053
157.25,0.0016
157.5,0.0151
157.75,0.0431
158.0,-0.0262
158.25,-0.0092
158.5,0.021
158.75,0.0871
159.0,0.1086
159.25,0.0958
159.5,0.0243
159.75,-0.011
160.0,-0.0076
160.25,0.1153
160.5,0.0119
160.75,0.0274
161.0,0.0176
161.25,0.0653
161.5,-0.023
161.75,0.7147
162.0,0.0727
162.25,0.0202
162.5,0.0114
162.75,-0.0023
163.0,0.6076
163.25,0.0033
163.5,-0.0035
163.75,0.0503
164.0,-0.0208
164.25,0.0782
164.5,-0.0106
164.75,-0.0088
165.0,0.1254
165.25,-0.0032
165.5,0.0081
165.75,-0.0132
166.0,0.0061
166.25,0.2592
166.5,0.006
166.75,0.097
167.0,0.1
167.25,0.7723
167.5,0.075
167.75,0.0067
168.0,-0.0036
168.25,0.1475
168.5,0.064
168.75,0.0141
169.0,-0.0151
169.25,0.044
169.5,0.0205
169.75,0.1272
170.0,0.0111
170.25,-0.0009
170.5,0.0147
170.75,-0.0202
171.0,0.0174
171.25,-0.0108
171.5,0.0644
171.75,0.0239
172.0,0.0798
172.25,-0.0224
172.5,0.0048
172.75,-0.0093
173.0,-0.0026
173.25,0.1116
173.5,-0.1153
173.75,0.147
174.0,0.1278
174.25,0.1451
174.5,0.0204
174.75,-0.0207
175.0,0.0657
175.25,-0.0262
175.5,0.0094
175.75,0.0077
176.0,0.1515
176.25,-0.0189
176.5,0.0864
176.75,0.0017
177.0,0.0158
177.25,0.0374
177.5,-0.0008
177.75,-0.0066
178.0,0.006
178.25,-0.0007
178.5,-0.0139
178.75,0.5321
179.0,0.1415
179.25,0.0237
179.5,0.0337
179.75,0.0111
180.0,0.0109
180.25,0.065
180.5,-0.0002
180.75,0.0742
181.0,0.0994
181.25,-0.0054
181.5,0.0604
181.75,0.0171
182.0,-0.0085
182.25,0.0023
182.5,-0.003
182.75,0.7166
183.0,0.1035
183.25,0.1665
183.5,0.0347
183.75,0.021
184.0,0.005
184.25,0.1159
184.5,-0.0031
184.75,0.0163
185.0,0.0088
185.25,0.005
185.5,0.0058
185.75,0.0006
186.0,0.0136
186.25,-0.0397
186.5,0.0041
186.75,0.021
187.0,-0.0023
187.25,0.09
187.5,0.0036
187.75,0.1064
188.0,0.0828
188.25,0.0599
188.5,0.1254
188.75,0.0777
189.0,0.0949
189.25,0.0583
189.5,0.0155
189.75,-0.0043
190.0,0.0118
190.25,0.0746
190.5,0.0098
190.75,-0.0108
191.0,0.0175
191.25,0.1346
191.5,0.0051
191.75,0.1181
192.0,-0.0109
192.25,0.0001
192.5,-0.0144
192.75,0.0067
193.0,0.0012
193.25,-0.0262
193.5,-0.0064
193.75,0.0062
194.0,-0.0116
194.25,-0.0138
194.5,-0.0085
194.75,0.0025
195.0,-0.0137
195.25,0.7915
195.5,0.0119
195.75,0.03
196.0,0.4443
196.25,-0.0064
196.5,0.0138
196.75,-0.0236
197.0,0.0792
197.25,0.117
197.5,-0.001
197.75,-0.016
198.0,-0.0076
198.25,0.064
198.5,0.0859
198.75,0.5558
199.0,-0.0027
199.25,-0.0004
199.5,-0.0064
199.75,0.6789
200.0,0.0015
200.25,-0.0065
200.5,-0.0318
200.75,0.1388
201.0,-0.0006
201.25,-0.0196
201.5,-0.0261
201.75,0.0012
202.0,0.1453
202.25,-0.0104
202.5,-0.0384
202.75,0.0706
203.0,-0.0085
203.25,0.001
203.5,0.0697
203.75,0.0237
204.0,0.0073
204.25,-0.0014
204.5,-0.0098
204.75,0.0212
205.0,-0.003
205.25,0.1313
205.5,0.1331
205.75,-0.0086
206.0,-0.0035
206.25,0.0581
206.5,0.029
206.75,-0.0064
207.0,0.0815
207.25,0.0123
207.5,0.1412
207.75,0.6574
208.0,-0.016
208.25,-0.0131
208.5,-0.002
208.75,0.0638
209.0,-0.0037
209.25,0.0577
209.5,0.0184
209.75,-0.0215
210.0,-0.0907
210.25,-0.0201
210.5,0.055
210.75,0.0236
211.0,0.0006
211.25,0.0055
211.5,-0.0015
211.75,-0.004
212.0,0.0074
212.25,-0.003
212.5,-0.0231
212.75,0.1369
213.0,0.1231
213.25,0.1401
213.5,0.0419
213.75,-0.0127
214.0,0.0017
214.25,-0.0127
214.5,0.1356
214.75,0.1152
215.0,0.0088
215.25,0.5036
215.5,-0.0054
215.75,0.0064
216.0,-0.0456
216.25,0.0009
216.5,0.0037
216.75,0.0748
217.0,-0.0187
217.25,-0.003
217.5,0.1456
217.75,0.0003
218.0,0.1447
218.25,0.0055
218.5,-0.003
218.75,0.0184
219.0,0.0643
219.25,0.0263
219.5,0.0611
219.75,-0.005
220.0,0.1485
220.25,0.0115
220.5,0.0078
220.75,0.0869
221.0,0.0211
221.25,0.0654
221.5,-0.0404
221.75,-0.0162
222.0,0.7013
222.25,0.0646
222.5,0.1232
222.75,0.0031
223.0,-0.0026
223.25,0.0187
223.5,0.1197
223.75,-0.0008
224.0,-0.0204
224.25,0.002
224.5,0.0169
224.75,0.019
225.0,0.0081
225.25,-0.0036
225.5,0.0639
225.75,-0.0153
226.0,-0.0097
226.25,0.1645
226.5,0.0233
226.75,-0.0163
227.0,0.0147
227.25,-0.0032
227.5,0.06
227.75,-0.0017
228.0,-0.0009
228.25,0.4927
228.5,0.0097
228.75,0.0589
229.0,0.0797
229.25,0.0271
229.5,-0.0198
229.75,0.05
230.0,0.0061
230.25,0.0194
230.5,0.114
230.75,0.027
231.0,0.0095
231.25,-0.0095
231.5,0.014
231.75,0.107
232.0,0.0059
232.25,-0.0144
232.5,-0.01
232.75,-0.0057
233.0,-0.0013
233.25,0.0146
233.5,-0.0107
233.75,0.1764
234.0,0.0011
234.25,0.1232
234.5,-0.1071
234.75,0.0067
235.0,-0.0055
235.25,-0.0173
235.5,-0.0044
235.75,-0.1059
236.0,0.6319
236.25,0.0112
236.5,0.1425
236.75,0.0906
237.0,0.077
237.25,0.0173
237.5,-0.0074
237.75,0.0545
238.0,0.0054
238.25,-0.0155
238.5,0.0178
238.75,-0.0237
239.0,0.0292
239.25,0.0145
239.5,0.5978
239.75,0.0
240.0,0.5121
240.25,-0.0002
240.5,-0.001
240.75,0.0032
241.0,0.2855
241.25,-0.0151
241.5,0.0695
241.75,0.136
242.0,-0.0048
242.25,0.0085
242.5,-0.0103
242.75,0.0735
243.0,0.0407
243.25,-0.0037
243.5,-0.0001
243.75,0.0024
244.0,-0.0061
244.25,0.0531
244.5,-0.0161
244.75,0.316
245.0,0.0387
245.25,0.0062
245.5,-0.0017
245.75,0.2704
246.0,-0.0232
246.25,0.0742
246.5,-0.0227
246.75,0.0031
247.0,0.0046
247.25,0.0695
247.5,-0.0019
247.75,0.0708
248.0,0.0023
248.25,0.0091
248.5,0.0718
248.75,0.0015
249.0,-0.0157
249.25,0.0118
249.5,-0.0064
249.75,-0.0203
250.0,-0.0012
250.25,-0.0081
250.5,-0.0093
250.75,0.1173
251.0,-0.008
251.25,0.1161
251.5,-0.0076
251.75,0.0369
252.0,0.0104
252.25,0.0053
252.5,0.0018
252.75,0.0022
253.0,0.0535
253.25,0.0274
253.5,-0.0348
253.75,0.002
254.0,0.0944
254.25,0.8004
254.5,0.0721
254.75,0.0085
255.0,-0.004
255.25,0.048
255.5,0.0007
255.75,-0.0149
256.0,-0.0013
256.25,-0.0199
256.5,0.4072
256.75,0.0454
257.0,0.0118
257.25,0.0441
257.5,-0.1219
257.75,-0.0119
258.0,0.5981
258.25,-0.0284
258.5,-0.0006
258.75,0.0099
259.0,-0.111
259.25,-0.0175
259.5,-0.0066
259.75,-0.0234
260.0,0.136
260.25,0.0142
260.5,0.0301
260.75,0.0072
261.0,0.0024
261.25,0.1109
261.5,-0.0241
261.75,0.1462
262.0,0.0078
262.25,0.0243
262.5,-0.0125
262.75,-0.0091
263.0,-0.0071
263.25,0.0096
263.5,0.0059
263.75,0.0082
264.0,0.0735
264.25,0.6871
264.5,0.6417
264.75,0.0596
265.0,0.799
265.25,-0.0134
265.5,0.0067
265.75,-0.0041
266.0,-0.0285
266.25,-0.0186
266.5,0.1377
266.75,-0.0164
267.0,0.1545
267.25,0.0729
267.5,-0.0076
267.75,-0.0392
268.0,0.1268
268.25,0.1526
268.5,0.0026
268.75,0.0198
269.0,0.1654
269.25,0.0035
269.5,0.8
269.75,-0.0068
270.0,-0.1179
270.25,-0.0134
270.5,0.0141
270.75,0.0138
271.0,0.0062
271.25,0.0086
271.5,-0.001
271.75,0.0078
272.0,0.0046
272.25,0.0717
272.5,-0.1243
272.75,0.0196
273.0,0.1572
273.25,-0.025
273.5,0.0751
273.75,0.1478
274.0,-0.0057
274.25,0.0512
274.5,0.097
274.75,-0.0029
275.0,0.6519
275.25,0.0739
275.5,0.0036
275.75,-0.0038
276.0,0.0059
276.25,0.0112
276.5,0.0031
276.75,0.028
277.0,0.0218
277.25,-0.0154
277.5,-0.0203
277.75,0.0015
278.0,0.0025
278.25,0.0074
278.5,0.0006
278.75,-0.0023
279.0,-0.0104
279.25,-0.0111
279.5,0.0661
279.75,0.0045
280.0,0.004
280.25,0.7267
280.5,0.0126
280.75,0.041
281.0,0.1375
281.25,0.0475
281.5,-0.0025
281.75,-0.0043
282.0,0.0706
282.25,-0.0069
282.5,0.0528
282.75,-0.0643
283.0,0.0612
283.25,-0.0035
283.5,0.0048
283.75,0.0619
284.0,0.1082
284.25,0.0935
284.5,0.0145
284.75,0.0829
285.0,-0.1071
285.25,0.0831
285.5,0.1276
285.75,-0.0148
286.0,-0.0005
286.25,-0.0043
286.5,0.0182
286.75,0.0032
287.0,-0.0145
287.25,-0.005
287.5,0.6065
287.75,-0.0007
288.0,0.0137
288.25,0.0201
288.5,-0.0115
288.75,0.0631
289.0,0.118
289.25,-0.0078
289.5,0.0014
289.75,0.0733
290.0,0.0152
290.25,-0.013
290.5,0.0188
290.75,0.0472
291.0,-0.0072
291.25,0.1414
291.5,0.0154
291.75,0.001
292.0,-0.0117
292.25,0.0029
292.5,0.0056
292.75,0.0041
293.0,0.0034
293.25,-0.0113
293.5,0.0842
293.75,-0.0028
294.0,0.0482
294.25,-0.0245
294.5,-0.0079
294.75,0.0754
295.0,-0.0053
295.25,0.0203
295.5,-0.0021
295.75,-0.016
296.0,0.0029
296.25,0.0016
296.5,0.0169
296.75,-0.0065
297.0,0.4199
297.25,-0.0007
297.5,-0.0115
297.75,0.1196
298.0,0.0171
298.25,0.0361
298.5,0.0984
298.75,-0.0085
299.0,0.0096
299.25,0.0098
299.5,0.0031
299.75,0.0244
300.0,-0.0189
300.25,0.0571
300.5,-0.0079
300.75,-0.009
301.0,0.0056
301.25,0.0145
301.5,0.0108
301.75,0.7745
302.0,0.0845
302.25,-0.0192
302.5,0.4874
302.75,-0.0042
303.0,0.0245
303.25,0.0264
303.5,-0.0048
303.75,0.0403
304.0,0.0012
304.25,-0.0032
304.5,0.0107
304.75,0.0667
305.0,0.0343
305.25,0.0067
305.5,0.0024
305.75,-0.04
306.0,-0.01
306.25,0.0472
306.5,0.0017
306.75,-0.0026
307.0,0.1046
307.25,-0.0048
307.5,0.1022
307.75,0.091
308.0,0.0474
308.25,0.012
308.5,-0.1099
308.75,0.0111
309.0,0.0988
309.25,0.0018
309.5,0.1493
309.75,-0.0315
310.0,-0.0103
310.25,0.0678
310.5,0.0181
310.75,0.0844
311.0,0.0165
311.25,0.0152
311.5,0.0767
311.75,0.1514
312.0,0.0063
312.25,0.1564
312.5,-0.0609
312.75,-0.0119
313.0,0.0114
313.25,0.0479
313.5,0.018
313.75,0.0196
314.0,0.0462
314.25,0.0036
314.5,-0.0104
314.75,0.0889
315.0,0.013
315.25,0.0199
315.5,0.1193
315.75,0.0845
316.0,0.0071
316.25,0.0865
316.5,0.0042
316.75,0.0341
317.0,-0.0003
317.25,0.0305
317.5,-0.0039
317.75,-0.0078
318.0,-0.0022
318.25,0.0074
318.5,0.0036
318.75,0.144
319.0,0.0729
319.25,0.1494
319.5,0.0076
319.75,-0.0104
320.0,0.0129
320.25,0.022
320.5,-0.0236
320.75,0.0045
321.0,0.0068
321.25,0.0924
321.5,0.0047
321.75,0.6866
322.0,-0.0098
322.25,0.0103
322.5,0.0013
322.75,-0.0066
323.0,0.0598
323.25,-0.0153
323.5,0.1305
323.75,0.0552
324.0,0.0032
324.25,0.1438
324.5,0.1148
324.75,0.0942
325.0,0.0102
325.25,-0.0075
325.5,-0.0132
325.75,-0.0585
326.0,-0.0006
326.25,0.5167
326.5,0.0105
326.75,0.1227
327.0,-0.0097
327.25,-0.0468
327.5,0.0659
327.75,0.1039
328.0,-0.0011
328.25,-0.0027
328.5,-0.0175
328.75,-0.0088
329.0,0.643
329.25,-0.0045
329.5,0.0106
329.75,-0.103
330.0,0.1002
330.25,0.0357
330.5,0.0094
330.75,0.0635
331.0,0.0249
331.25,-0.071
331.5,0.102
331.75,0.8111
332.0,0.002
332.25,0.7809
332.5,0.0865
332.75,0.0001
333.0,-0.0081
333.25,-0.0077
333.5,-0.0058
333.75,-0.0043
334.0,0.002
334.25,0.0074
334.5,0.0205
334.75,0.0071
335.0,-0.0049
335.25,-0.0041
335.5,-0.0128
335.75,-0.0136
336.0,-0.003
336.25,-0.0036
336.5,-0.0009
336.75,0.0052
337.0,0.0344
337.25,-0.0167
337.5,0.093
337.75,0.01
338.0,-0.0199
338.25,-0.004
338.5,0.0074
338.75,-0.024
339.0,0.0295
339.25,0.0724
339.5,0.019
339.75,-0.0122
340.0,-0.0054
340.25,-0.0055
340.5,-0.0108
340.75,0.0036
341.0,-0.0137
341.25,-0.0109
341.5,-0.0013
341.75,0.0013
342.0,0.067
342.25,-0.0089
342.5,0.0679
342.75,0.1117
343.0,-0.0024
343.25,0.0004
343.5,0.0254
343.75,-0.0132
344.0,0.1181
344.25,0.0386
344.5,-0.0002
344.75,-0.0158
345.0,-0.0075
345.25,-0.0019
345.5,0.0019
345.75,-0.0215
346.0,-0.0013
346.25,0.0036
346.5,0.0229
346.75,0.0164
347.0,0.0632
347.25,0.0644
347.5,0.552
347.75,0.0645
348.0,0.0885
348.25,-0.0128
348.5,0.011
348.75,0.0384
349.0,0.0061
349.25,-0.0084
349.5,0.0789
349.75,0.4081
350.0,-0.0106
350.25,0.0316
350.5,-0.0033
350.75,-0.0139
351.0,0.0509
351.25,0.0035
351.5,0.0054
351.75,-0.0081
352.0,0.1405
352.25,0.1484
352.5,0.0023
352.75,0.3494
353.0,-0.0888
353.25,0.0765
353.5,0.6981
353.75,-0.0008
354.0,0.3843
354.25,0.0067
354.5,-0.0083
354.75,0.0117
355.0,0.115
355.25,-0.0454
355.5,0.0641
355.75,0.0022
356.0,-0.0066
356.25,0.0582
356.5,-0.0064
356.75,-0.014
357.0,0.0333
357.25,-0.0063
357.5,0.5055
357.75,0.0095
358.0,-0.0132
358.25,0.0808
358.5,0.1333
358.75,0.082
359.0,0.0119
359.25,0.0615
359.5,0.1244
359.75,0.048
360.0,0.0035
360.25,-0.0122
360.5,-0.0117
360.75,0.6503
361.0,0.7304
361.25,-0.0163
361.5,0.7526
361.75,0.0535
362.0,0.0153
362.25,-0.0154
362.5,0.0035
362.75,0.0145
363.0,-0.006
363.25,-0.0411
363.5,0.1226
363.75,0.0246
364.0,-0.0136
364.25,0.3767
364.5,-0.1483
364.75,-0.0076
365.0,0.0742
365.25,-0.0348
365.5,0.0613
365.75,0.0934
366.0,0.0386
366.25,0.0275
366.5,-0.0003
366.75,-0.0741
367.0,0.1106
367.25,0.0748
367.5,-0.1075
367.75,0.0202
368.0,0.0716
368.25,0.0075
368.5,-0.012
368.75,-0.0661
369.0,0.0013
369.25,-0.0888
369.5,0.032
369.75,0.0156
370.0,0.0193
370.25,0.005
370.5,0.0071
370.75,-0.0041
371.0,0.0382
371.25,-0.0047
371.5,-0.0338
371.75,-0.0052
372.0,0.0101
372.25,0.0003
372.5,0.0574
372.75,0.0112
373.0,0.0096
373.25,-0.0026
373.5,0.1076
373.75,0.8016
374.0,0.0069
374.25,0.1562
374.5,0.0944
374.75,-0.004
375.0,-0.0242
375.25,-0.0115
375.5,0.0108
375.75,0.3192
376.0,-0.0097
376.25,0.0331
376.5,-0.0183
376.75,-0.0061
377.0,0.5013
377.25,-0.0097
377.5,-0.0254
377.75,-0.0049
378.0,0.039
378.25,0.0085
378.5,0.0061
378.75,0.1156
379.0,0.1332
379.25,0.1423
379.5,-0.0181
379.75,-0.011
380.0,0.0191
380.25,-0.006
380.5,-0.0175
380.75,-0.0093
381.0,-0.0008
381.25,0.0216
381.5,-0.0085
381.75,-0.0122
382.0,-0.0015
382.25,0.0035
382.5,0.5686
382.75,0.2242
383.0,0.1451
383.25,0.0167
383.5,0.0027
383.75,-0.0041
384.0,0.6533
384.25,0.1105
384.5,-0.0003
384.75,0.0465
385.0,0.0012
385.25,0.1343
385.5,0.0473
385.75,0.02
386.0,0.0118
386.25,-0.0093
386.5,0.0713
386.75,0.0006
387.0,0.0082
387.25,0.1353
387.5,0.0515
387.75,0.0015
388.0,0.0631
388.25,0.0641
388.5,-0.0037
388.75,0.0002
389.0,0.0002
389.25,0.1382
389.5,0.0161
389.75,-0.0031
390.0,-0.0207
390.25,-0.0008
390.5,-0.0357
390.75,0.0186
391.0,0.7211
391.25,-0.0048
391.5,0.0022
391.75,0.0327
392.0,0.0096
392.25,0.0604
392.5,0.0421
392.75,0.0722
393.0,0.0465
393.25,-0.0021
393.5,0.1024
393.75,0.0064
394.0,0.0604
394.25,-0.014
394.5,0.0044
394.75,0.0176
395.0,0.0025
395.25,-0.0181
395.5,-0.0171
395.75,0.0036
396.0,-0.0116
396.25,0.0008
396.5,0.6144
396.75,-0.0059
397.0,0.4586
397.25,0.0013
397.5,0.0043
397.75,0.0046
398.0,0.0638
398.25,-0.0357
398.5,-0.004
398.75,0.52
399.0,0.4511
399.25,0.0
399.5,-0.0052
399.75,0.4062
400.0,-0.0037
400.25,0.1494
400.5,0.0196
400.75,0.1066
401.0,-0.0065
401.25,0.0102
401.5,0.1368
401.75,0.1453
402.0,0.0098
402.25,0.0017
402.5,-0.0047
402.75,0.0578
403.0,0.6143
403.25,0.1423
403.5,-0.0355
403.75,0.0725
404.0,0.1384
404.25,-0.0098
404.5,-0.0134
404.75,0.0118
405.0,0.0381
405.25,-0.0095
405.5,0.7869
405.75,0.1208
406.0,-0.0053
406.25,0.7732
406.5,0.0517
406.75,0.0063
407.0,0.0935
407.25,0.0003
407.5,0.0053
407.75,0.0318
408.0,-0.0025
408.25,0.0568
408.5,0.0526
408.75,0.0039
409.0,-0.0099
409.25,0.0134
409.5,0.1172
409.75,0.0484
410.0,0.1203
410.25,-0.0055
410.5,-0.0004
410.75,-0.0021
411.0,0.076
411.25,0.0041
411.5,0.0021
411.75,0.1259
412.0,-0.0224
412.25,0.1253
412.5,-0.0055
412.75,0.1323
413.0,0.0141
413.25,-0.0122
413.5,0.0058
413.75,-0.0009
414.0,0.007
414.25,0.0271
414.5,-0.0038
414.75,-0.0175
415.0,0.082
415.25,0.0578
415.5,0.0074
415.75,-0.0074
416.0,0.1364
416.25,-0.0072
416.5,0.0223
416.75,0.0124
417.0,0.0738
417.25,0.0071
417.5,0.1237
417.75,-0.0115
418.0,0.0485
418.25,0.008
418.5,-0.0111
418.75,-0.0065
419.0,0.0189
419.25,-0.0523
419.5,0.1312
419.75,-0.0119
420.0,0.0096
420.25,-0.0084
420.5,0.1314
420.75,0.0024
421.0,-0.0024
421.25,0.0612
421.5,0.5726
421.75,0.095
422.0,0.151
422.25,-0.0064
422.5,0.1279
422.75,-0.0037
423.0,0.1395
423.25,0.0047
423.5,0.2762
423.75,0.0065
424.0,0.0077
424.25,-0.0045
424.5,0.0116
424.75,-0.019
425.0,0.0112
425.25,0.008
425.5,0.0087
425.75,0.0181
426.0,-0.0125
426.25,0.1183
426.5,0.0294
426.75,-0.0026
427.0,-0.098
427.25,0.0306
427.5,0.0228
427.75,0.0524
428.0,0.0887
428.25,0.1411
428.5,-0.0003
428.75,-0.0116
429.0,0.1112
429.25,-0.0311
429.5,0.6478
429.75,0.0461
430.0,0.0156
430.25,0.0079
430.5,0.0094
430.75,-0.0122
431.0,0.0028
431.25,-0.0033
431.5,0.0154
431.75,0.004
432.0,0.0008
432.25,-0.0113
432.5,-0.0023
432.75,0.0032
433.0,-0.1253
433.25,0.1279
433.5,0.0201
433.75,0.1033
434.0,0.0151
434.25,0.0074
434.5,-0.0107
434.75,-0.0221
435.0,0.0111
435.25,0.0786
435.5,0.7738
435.75,0.0252
436.0,-0.0016
436.25,0.8009
436.5,0.0256
436.75,0.0196
437.0,0.0744
437.25,-0.0164
437.5,0.0276
437.75,-0.0143
438.0,-0.0005
438.25,0.016
438.5,0.0045
438.75,0.0028
439.0,-0.0002
439.25,0.0112
439.5,0.0004
439.75,-0.011
440.0,0.0236
440.25,-0.0149
440.5,-0.1084
440.75,0.024
441.0,0.0025
441.25,0.0734
441.5,-0.0178
441.75,0.0377
442.0,0.0387
442.25,-0.0077
442.5,0.6352
442.75,0.0974
443.0,0.1593
443.25,-0.0253
443.5,0.0023
443.75,-0.0005
444.0,0.0204
444.25,0.0101
444.5,-0.0509
444.75,0.0271
445.0,0.0069
445.25,0.0069
445.5,0.1285
445.75,0.0066
446.0,0.0073
446.25,0.0114
446.5,0.7831
446.75,0.106
447.0,0.0487
447.25,-0.0028
447.5,-0.0969
447.75,-0.0133
448.0,0.0691
448.25,0.7841
448.5,-0.0021
448.75,-0.0271
449.0,0.042
449.25,0.0048
449.5,0.0603
449.75,0.0266
450.0,0.0012
450.25,-0.0006
450.5,0.0431
450.75,-0.069
451.0,-0.0103
451.25,0.0141
451.5,0.6725
451.75,-0.0016
452.0,0.0142
452.25,0.0081
452.5,-0.0067
452.75,0.0086
453.0,-0.0069
453.25,0.0016
453.5,0.0242
453.75,-0.0191
454.0,0.0111
454.25,0.0617
454.5,0.0466
454.75,0.0747
455.0,0.0021
455.25,0.0028
455.5,0.0048
455.75,0.0058
456.0,-0.009
456.25,0.006
456.5,0.1268
456.75,0.0101
457.0,0.0141
457.25,-0.0001
457.5,-0.0971
457.75,-0.0943
458.0,-0.0043
458.25,-0.0697
458.5,0.0964
458.75,-0.0216
459.0,0.0114
459.25,0.0182
459.5,0.0369
459.75,0.0284
460.0,0.0844
460.25,0.0703
460.5,-0.0058
460.75,-0.0224
461.0,-0.0025
461.25,0.0244
461.5,0.0132
461.75,-0.0114
462.0,-0.0022
462.25,0.001
462.5,0.1182
462.75,0.0166
463.0,0.0046
463.25,0.0088
463.5,0.0104
463.75,0.0016
464.0,0.3812
464.25,-0.0587
464.5,0.0026
464.75,-0.0107
465.0,0.0791
465.25,-0.009
465.5,0.0038
465.75,0.1356
466.0,0.0093
466.25,0.1223
466.5,0.0302
466.75,0.0045
467.0,0.0122
467.25,-0.0077
467.5,0.0214
467.75,-0.0056
468.0,0.1155
468.25,-0.0214
468.5,0.0184
468.75,0.0115
469.0,-0.0082
469.25,-0.0043
469.5,0.4541
469.75,0.0272
470.0,0.0008
470.25,0.0109
470.5,-0.0009
470.75,0.0692
471.0,0.0187
471.25,0.0893
471.5,0.1061
471.75,0.6259
472.0,0.0653
472.25,-0.0072
472.5,-0.0002
472.75,0.036
473.0,-0.0026
473.25,-0.0263
473.5,0.0158
473.75,0.0464
474.0,-0.018
474.25,0.0016
474.5,0.0045
474.75,-0.0068
475.0,0.0241
475.25,0.0114
475.5,-0.0127
475.75,0.0074
476.0,0.0082
476.25,0.0026
476.5,-0.0005
476.75,-0.0186
477.0,0.0381
477.25,0.0117
477.5,0.0199
477.75,-0.0022
478.0,0.0035
478.25,-0.0096
478.5,0.001
478.75,0.064
479.0,-0.0209
479.25,-0.0017
479.5,-0.0113
479.75,0.0815
