time,ecg
0.0,0.0052
0.25,0.0273
0.5,-0.0281
0.75,-0.015
1.0,0.0336
1.25,0.0084
1.5,0.078
1.75,0.0021
2.0,0.0034
2.25,0.0309
2.5,0.0023
2.75,0.1417
3.0,0.0289
3.25,-0.0084
3.5,0.1561
3.75,-0.1164
4.0,-0.0082
4.25,0.0017
4.5,0.1626
4.75,0.0174
5.0,0.0472
5.25,-0.0068
5.5,-0.0045
5.75,-0.0074
6.0,0.0243
6.25,-0.0118
6.5,-0.0098
6.75,-0.0153
7.0,-0.0042
7.25,-0.0002
7.5,0.0001
7.75,0.0136
8.0,-0.0218
8.25,0.1536
8.5,0.025
8.75,0.0051
9.0,0.0138
9.25,0.0819
9.5,-0.0853
9.75,-0.0102
10.0,0.0386
10.25,0.0028
10.5,0.0045
10.75,0.0054
11.0,0.0004
11.25,0.0016
11.5,-0.0306
11.75,-0.0094
12.0,0.1489
12.25,0.5802
12.5,0.1517
12.75,-0.0212
13.0,0.0005
13.25,-0.0144
13.5,0.1558
13.75,0.0763
14.0,0.0594
14.25,-0.0767
14.5,0.7597
14.75,-0.0029
15.0,0.0668
15.25,0.0153
15.5,0.0021
15.75,0.7371
16.0,0.0596
16.25,0.0888
16.5,0.0117
16.75,0.1124
17.0,0.0054
17.25,0.6565
17.5,0.0186
17.75,-0.001
18.0,0.76
18.25,0.0144
18.5,0.0538
18.75,0.0163
19.0,-0.0004
19.25,-0.0177
19.5,0.0296
19.75,0.1459
20.0,0.0078
20.25,0.1143
20.5,-0.0139
20.75,-0.0044
21.0,0.0527
21.25,0.0042
21.5,0.0304
21.75,0.0817
22.0,0.0828
22.25,0.1489
22.5,0.7597
22.75,0.0001
23.0,0.0204
23.25,0.1305
23.5,0.1344
23.75,0.0155
24.0,0.0053
24.25,0.0068
24.5,-0.005
24.75,-0.0079
25.0,0.0094
25.25,0.0002
25.5,0.0106
25.75,0.0636
26.0,-0.0077
26.25,-0.0053
26.5,-0.0008
26.75,0.0343
27.0,-0.0019
27.25,0.0008
27.5,-0.0041
27.75,-0.0122
28.0,-0.0409
28.25,0.1296
28.5,-0.0639
28.75,-0.0047
29.0,-0.1098
29.25,0.0365
29.5,0.0662
29.75,-0.0181
30.0,0.6448
30.25,0.1496
30.5,0.0081
30.75,0.0866
31.0,0.1558
31.25,0.0124
31.5,-0.0851
31.75,0.0823
32.0,0.0042
32.25,0.5264
32.5,0.0086
32.75,0.0124
33.0,0.0901
33.25,0.0774
33.5,0.0152
33.75,0.0201
34.0,-0.0174
34.25,0.0715
34.5,-0.0443
34.75,0.0016
35.0,0.088
35.25,0.0028
35.5,0.0509
35.75,0.1416
36.0,0.7237
36.25,-0.0034
36.5,0.0257
36.75,0.1373
37.0,0.0074
37.25,0.0098
37.5,0.1332
37.75,-0.1114
38.0,0.1407
38.25,-0.107
38.5,0.0001
38.75,-0.0369
39.0,0.1093
39.25,-0.0003
39.5,0.1399
39.75,-0.0086
40.0,-0.0333
40.25,-0.0014
40.5,0.0623
40.75,-0.0582
41.0,0.1193
41.25,0.0553
41.5,0.0094
41.75,-0.0013
42.0,0.1106
42.25,0.0155
42.5,0.0205
42.75,0.0034
43.0,-0.0126
43.25,0.1527
43.5,-0.0124
43.75,0.0058
44.0,-0.0196
44.25,0.0143
44.5,-0.0055
44.75,-0.0221
45.0,0.0322
45.25,0.3237
45.5,-0.0083
45.75,0.0478
46.0,0.1412
46.25,-0.0019
46.5,0.1452
46.75,0.0003
47.0,0.0108
47.25,0.0475
47.5,0.0228
47.75,0.1273
48.0,0.059
48.25,-0.0011
48.5,-0.0085
48.75,-0.0017
49.0,0.0014
49.25,0.0661
49.5,-0.0214
49.75,0.0056
50.0,0.6716
50.25,0.011
50.5,-0.0202
50.75,0.0667
51.0,-0.0227
51.25,0.0081
51.5,0.5547
51.75,0.015
52.0,-0.0859
52.25,0.0993
52.5,0.0034
52.75,0.0092
53.0,0.0161
53.25,0.025
53.5,0.0126
53.75,-0.0152
54.0,0.0144
54.25,-0.0054
54.5,0.01
54.75,0.132
55.0,0.1064
55.25,0.053
55.5,-0.0149
55.75,-0.0046
56.0,0.0018
56.25,0.0261
56.5,0.4941
56.75,-0.014
57.0,0.0165
57.25,0.0129
57.5,0.0159
57.75,0.0488
58.0,0.0924
58.25,-0.0145
58.5,0.0611
58.75,-0.0007
59.0,0.0251
59.25,-0.0094
59.5,-0.0031
59.75,0.0056
60.0,0.1206
60.25,-0.0382
60.5,-0.026
60.75,0.0089
61.0,-0.0262
61.25,0.0282
61.5,0.0007
61.75,0.0053
62.0,0.5125
62.25,-0.0193
62.5,-0.0012
62.75,0.0013
63.0,-0.0082
63.25,0.0264
63.5,-0.1276
63.75,0.0469
64.0,0.0502
64.25,-0.0131
64.5,-0.0096
64.75,0.1003
65.0,-0.0081
65.25,-0.0047
65.5,-0.0121
65.75,-0.0102
66.0,0.0077
66.25,0.0875
66.5,0.073
66.75,0.0116
67.0,0.0104
67.25,0.0023
67.5,-0.0049
67.75,0.1477
68.0,0.0019
68.25,0.0244
68.5,-0.0106
68.75,0.0991
69.0,-0.0011
69.25,0.0244
69.5,0.0305
69.75,0.0817
70.0,-0.0044
70.25,0.0411
70.5,-0.0048
70.75,-0.0274
71.0,-0.0109
71.25,0.0078
71.5,-0.0055
71.75,0.0758
72.0,0.1306
72.25,0.0048
72.5,0.0186
72.75,0.0202
73.0,-0.0013
73.25,0.0175
73.5,0.143
73.75,0.0204
74.0,0.0016
74.25,0.0006
74.5,0.0551
74.75,0.0692
75.0,0.1795
75.25,-0.0205
75.5,0.0035
75.75,0.4302
76.0,0.0991
76.25,0.0681
76.5,0.0592
76.75,0.129
77.0,0.1159
77.25,0.1325
77.5,0.1072
77.75,0.0283
78.0,-0.0326
78.25,0.0315
78.5,0.027
78.75,0.0098
79.0,0.0021
79.25,0.1003
79.5,-0.1208
79.75,-0.0016
80.0,-0.0211
80.25,0.0102
80.5,-0.0052
80.75,0.0591
81.0,0.0024
81.25,-0.0044
81.5,-0.0402
81.75,0.0138
82.0,-0.0152
82.25,0.011
82.5,0.1245
82.75,-0.0096
83.0,0.0077
83.25,0.1088
83.5,-0.0078
83.75,0.0042
84.0,0.1029
84.25,-0.0141
84.5,0.0592
84.75,0.0056
85.0,-0.0027
85.25,0.0055
85.5,-0.0014
85.75,-0.0167
86.0,0.072
86.25,0.0544
86.5,0.0057
86.75,0.01
87.0,0.0022
87.25,-0.0145
87.5,0.0088
87.75,0.004
88.0,-0.0028
88.25,-0.0224
88.5,0.0445
88.75,0.0077
89.0,-0.0012
89.25,0.1453
89.5,-0.0006
89.75,0.065
90.0,0.0041
90.25,-0.0005
90.5,0.0515
90.75,-0.0072
91.0,-0.0137
91.25,0.1526
91.5,0.1307
91.75,-0.0001
92.0,0.1277
92.25,-0.0116
92.5,0.0035
92.75,0.0851
93.0,0.0107
93.25,-0.007
93.5,0.0242
93.75,0.1226
94.0,-0.0923
94.25,-0.0123
94.5,0.155
94.75,0.0507
95.0,0.0617
95.25,0.007
95.5,-0.0965
95.75,-0.1352
96.0,0.1172
96.25,0.0069
96.5,0.0196
96.75,0.7488
97.0,0.0096
97.25,-0.0
97.5,0.1241
97.75,0.0055
98.0,0.0523
98.25,0.0652
98.5,0.1667
98.75,0.0571
99.0,0.0023
99.25,-0.0077
99.5,0.0272
99.75,0.0916
100.0,0.4889
100.25,0.0013
100.5,0.0625
100.75,0.0789
101.0,0.0184
101.25,-0.0208
101.5,0.0094
101.75,0.0169
102.0,0.014
102.25,0.0177
102.5,0.1216
102.75,-0.0064
103.0,-0.0202
103.25,0.0047
103.5,-0.0023
103.75,0.1642
104.0,0.081
104.25,0.0598
104.5,-0.1313
104.75,-0.0155
105.0,0.0956
105.25,0.1172
105.5,0.0017
105.75,0.0227
106.0,-0.003
106.25,-0.0083
106.5,0.025
106.75,0.0903
107.0,0.0837
107.25,0.0016
107.5,0.0097
107.75,0.0175
108.0,-0.0031
108.25,0.4315
108.5,-0.0038
108.75,0.0148
109.0,-0.0135
109.25,-0.0043
109.5,0.0079
109.75,-0.0009
110.0,-0.0083
110.25,-0.01
110.5,0.0911
110.75,0.0101
111.0,0.1074
111.25,0.0186
111.5,0.0082
111.75,0.1058
112.0,0.0139
112.25,0.0342
112.5,0.0081
112.75,-0.0213
113.0,0.0097
113.25,-0.0034
113.5,0.0973
113.75,0.5534
114.0,-0.0004
114.25,-0.0059
114.5,-0.0132
114.75,0.043
115.0,0.7308
115.25,0.084
115.5,0.0611
115.75,0.0042
116.0,0.0005
116.25,0.0882
116.5,-0.0136
116.75,0.0067
117.0,0.275
117.25,0.1251
117.5,0.0063
117.75,-0.0325
118.0,-0.0601
118.25,0.0016
118.5,0.013
118.75,0.0921
119.0,-0.0201
119.25,0.0069
119.5,0.1523
119.75,0.5566
120.0,-0.0092
120.25,-0.0013
120.5,0.0872
120.75,0.064
121.0,0.1218
121.25,0.1254
121.5,-0.0172
121.75,0.0015
122.0,-0.0068
122.25,0.0003
122.5,0.0837
122.75,0.1454
123.0,0.3153
123.25,0.0681
123.5,0.0705
123.75,-0.0352
124.0,0.0221
124.25,0.0673
124.5,0.7746
124.75,-0.0157
125.0,0.0552
125.25,0.0011
125.5,-0.0099
125.75,-0.0041
126.0,-0.0218
126.25,-0.008
126.5,-0.0097
126.75,0.0149
127.0,0.0035
127.25,0.0181
127.5,0.1387
127.75,0.0029
128.0,0.1482
128.25,-0.0154
128.5,0.0195
128.75,-0.0041
129.0,0.0561
129.25,-0.0063
129.5,0.0203
129.75,0.0134
130.0,0.0179
130.25,0.0058
130.5,0.104
130.75,0.0442
131.0,0.0002
131.25,-0.0033
131.5,0.0028
131.75,0.0008
132.0,0.0132
132.25,0.0027
132.5,0.0863
132.75,0.1633
133.0,0.7662
133.25,0.0673
133.5,0.0082
133.75,0.0752
134.0,0.0174
134.25,0.0235
134.5,0.1634
134.75,0.0233
135.0,-0.0038
135.25,0.0473
135.5,0.8082
135.75,-0.0323
136.0,0.1045
136.25,0.0471
136.5,0.0072
136.75,0.0069
137.0,-0.0024
137.25,0.0001
137.5,-0.1031
137.75,-0.0042
138.0,0.0013
138.25,0.1194
138.5,-0.0145
138.75,0.0091
139.0,0.4402
139.25,-0.0019
139.5,-0.0151
139.75,-0.0086
140.0,0.0773
140.25,0.016
140.5,0.0048
140.75,0.0165
141.0,0.0517
141.25,0.7877
141.5,-0.0093
141.75,-0.0126
142.0,0.0063
142.25,0.0102
142.5,-0.025
142.75,0.0002
143.0,0.1512
143.25,0.0315
143.5,0.1246
143.75,-0.0117
144.0,0.0143
144.25,0.318
144.5,0.0312
144.75,0.0623
145.0,0.1586
145.25,0.1358
145.5,0.0019
145.75,-0.0092
146.0,0.02
146.25,0.0043
146.5,-0.0102
146.75,-0.0288
147.0,-0.0049
147.25,0.1663
147.5,-0.0192
147.75,-0.0106
148.0,0.145
148.25,-0.1241
148.5,0.2172
148.75,-0.0278
149.0,-0.0098
149.25,0.0177
149.5,-0.0369
149.75,-0.0002
150.0,0.0026
150.25,-0.0062
150.5,0.001
150.75,0.2331
151.0,0.0023
151.25,-0.1066
151.5,0.1248
151.75,0.0305
152.0,0.1356
152.25,-0.0251
152.5,0.0965
152.75,0.0274
153.0,0.0972
153.25,0.0128
153.5,-0.0078
153.75,-0.0055
154.0,-0.004
154.25,-0.0121
154.5,-0.0078
154.75,0.0822
155.0,0.0839
155.25,0.0236
155.5,-0.0153
155.75,0.0492
156.0,-0.0026
156.25,-0.0311
156.5,0.1113
156.75,0.0076
157.0,0.1192
157.25,0.1484
157.5,-0.0423
157.75,-0.0161
158.0,-0.0176
158.25,0.5939
158.5,0.1215
158.75,-0.0072
159.0,0.0015
159.25,-0.011
159.5,-0.0232
159.75,0.0556
160.0,0.1322
160.25,0.2986
160.5,0.0329
160.75,0.127
161.0,0.0317
161.25,0.0557
161.5,0.0681
161.75,0.0105
162.0,0.1464
162.25,-0.1367
162.5,0.005
162.75,-0.002
163.0,0.0124
163.25,0.0114
163.5,0.0203
163.75,0.1095
164.0,0.0528
164.25,-0.0328
164.5,0.0283
164.75,0.0179
165.0,-0.009
165.25,0.0048
165.5,-0.0518
165.75,0.0016
166.0,0.0003
166.25,-0.0008
166.5,0.1354
166.75,-0.1036
167.0,-0.0062
167.25,0.0199
167.5,0.004
167.75,0.0091
168.0,-0.006
168.25,-0.0005
168.5,0.6996
168.75,0.1463
169.0,0.0812
169.25,0.0009
169.5,0.0029
169.75,0.0053
170.0,-0.0051
170.25,0.0027
170.5,-0.0013
170.75,0.0128
171.0,0.0093
171.25,-0.0104
171.5,-0.0036
171.75,0.031
172.0,-0.007
172.25,-0.0061
172.5,0.035
172.75,-0.0032
173.0,0.0666
173.25,0.167
173.5,0.0534
173.75,-0.0009
174.0,-0.0285
174.25,0.0965
174.5,0.0601
174.75,0.1466
175.0,0.0025
175.25,-0.0029
175.5,-0.0085
175.75,-0.0976
176.0,0.1104
176.25,-0.0028
176.5,0.2516
176.75,0.1223
177.0,0.0679
177.25,0.1228
177.5,0.0207
177.75,-0.0006
178.0,0.0176
178.25,-0.0164
178.5,0.012
178.75,-0.0041
179.0,0.0567
179.25,-0.0066
179.5,0.0167
179.75,0.0863
180.0,0.0129
180.25,0.0004
180.5,-0.023
180.75,0.6835
181.0,-0.0754
181.25,0.0042
181.5,0.0067
181.75,0.133
182.0,-0.016
182.25,-0.0184
182.5,0.0135
182.75,0.0008
183.0,0.0117
183.25,-0.0016
183.5,0.0208
183.75,0.55
184.0,0.0772
184.25,-0.0991
184.5,0.0008
184.75,0.0099
185.0,-0.0007
185.25,-0.0014
185.5,-0.0583
185.75,0.0904
186.0,-0.0107
186.25,-0.0093
186.5,0.0073
186.75,0.1393
187.0,-0.0939
187.25,-0.0036
187.5,0.2716
187.75,-0.003
188.0,0.0089
188.25,0.0042
188.5,0.0073
188.75,-0.0014
189.0,0.136
189.25,0.0236
189.5,0.0627
189.75,0.0189
190.0,-0.0033
190.25,-0.0012
190.5,0.0678
190.75,0.0357
191.0,0.0864
191.25,0.0091
191.5,-0.0226
191.75,0.0036
192.0,0.1263
192.25,0.0801
192.5,-0.0043
192.75,-0.003
193.0,0.0194
193.25,0.0088
193.5,0.0035
193.75,-0.03
194.0,0.249
194.25,-0.0243
194.5,0.0159
194.75,-0.0025
195.0,0.0001
195.25,0.116
195.5,0.0091
195.75,-0.0066
196.0,-0.0063
196.25,-0.0054
196.5,0.0842
196.75,-0.0217
197.0,-0.0081
197.25,0.1225
197.5,0.012
197.75,0.062
198.0,-0.0159
198.25,0.0122
198.5,0.0118
198.75,0.0666
199.0,0.0624
199.25,-0.012
199.5,0.0032
199.75,0.7938
200.0,-0.0131
200.25,-0.0075
200.5,0.0243
200.75,0.0099
201.0,0.0662
201.25,0.0635
201.5,-0.0027
201.75,0.1042
202.0,0.0074
202.25,0.0077
202.5,0.1396
202.75,0.5034
203.0,0.097
203.25,0.0521
203.5,-0.0016
203.75,0.0063
204.0,0.1225
204.25,0.0195
204.5,-0.0078
204.75,0.0108
205.0,-0.0208
205.25,0.0739
205.5,0.123
205.75,0.3489
206.0,-0.0053
206.25,0.0478
206.5,-0.0101
206.75,0.1364
207.0,0.0596
207.25,-0.0087
207.5,0.1552
207.75,0.1179
208.0,-0.0208
208.25,0.1508
208.5,0.0397
208.75,0.4193
209.0,0.009
209.25,0.0312
209.5,0.0104
209.75,-0.0092
210.0,0.0066
210.25,-0.0043
210.5,-0.0136
210.75,0.1338
211.0,0.1529
211.25,0.0605
211.5,0.0884
211.75,0.0004
212.0,0.0152
212.25,0.0024
212.5,-0.0015
212.75,-0.0244
213.0,-0.002
213.25,0.0534
213.5,0.0032
213.75,-0.0003
214.0,-0.0122
214.25,0.0002
214.5,-0.1022
214.75,0.0273
215.0,0.1296
215.25,-0.0039
215.5,0.0153
215.75,0.2543
216.0,0.1467
216.25,0.2968
216.5,0.0026
216.75,0.068
217.0,0.0311
217.25,-0.092
217.5,-0.0104
217.75,0.0913
218.0,0.0087
218.25,0.0709
218.5,0.1392
218.75,0.0046
219.0,0.0181
219.25,0.0087
219.5,0.1459
219.75,0.1278
220.0,-0.0392
220.25,-0.006
220.5,0.0087
220.75,-0.0441
221.0,-0.1017
221.25,0.0204
221.5,0.0011
221.75,0.1405
222.0,0.0798
222.25,-0.051
222.5,0.145
222.75,-0.004
223.0,0.6704
223.25,-0.0108
223.5,0.0224
223.75,0.0566
224.0,-0.0174
224.25,0.0337
224.5,0.0999
224.75,-0.1078
225.0,0.0169
225.25,0.0116
225.5,0.0059
225.75,0.0864
226.0,0.1237
226.25,0.1281
226.5,0.0367
226.75,0.4796
227.0,0.1223
227.25,0.0086
227.5,0.0632
227.75,0.0685
228.0,0.0774
228.25,0.0282
228.5,-0.0108
228.75,0.0128
229.0,-0.0066
229.25,-0.0194
229.5,-0.0113
229.75,0.0134
230.0,-0.0086
230.25,0.0046
230.5,0.1466
230.75,0.1396
231.0,0.004
231.25,0.0772
231.5,-0.0118
231.75,0.0705
232.0,0.0615
232.25,0.1085
232.5,0.1607
232.75,-0.0034
233.0,0.0685
233.25,0.1062
233.5,-0.0171
233.75,-0.0001
234.0,0.0067
234.25,0.0685
234.5,0.0097
234.75,0.0174
235.0,0.0181
235.25,0.007
235.5,0.0258
235.75,-0.0069
236.0,0.0286
236.25,-0.0037
236.5,-0.0055
236.75,0.0173
237.0,0.1253
237.25,-0.0012
237.5,0.0346
237.75,0.0858
238.0,0.0138
238.25,-0.0086
238.5,0.0117
238.75,-0.0098
239.0,0.7034
239.25,0.0165
239.5,-0.0141
239.75,0.0472
240.0,0.0585
240.25,-0.0175
240.5,0.0122
240.75,-0.0169
241.0,-0.0001
241.25,0.621
241.5,0.1335
241.75,0.8142
242.0,-0.0023
242.25,0.1763
242.5,0.0153
242.75,0.0123
243.0,0.0245
243.25,0.1064
243.5,-0.0025
243.75,-0.009
244.0,-0.0067
244.25,0.0174
244.5,-0.0005
244.75,-0.012
245.0,-0.0016
245.25,0.0122
245.5,0.0519
245.75,-0.1062
246.0,0.063
246.25,0.0177
246.5,-0.009
246.75,0.8193
247.0,0.0111
247.25,-0.0213
247.5,-0.0334
247.75,0.0026
248.0,0.0036
248.25,0.0832
248.5,-0.0033
248.75,-0.0006
249.0,-0.0017
249.25,0.0041
249.5,-0.0092
249.75,-0.0169
250.0,0.127
250.25,0.1116
250.5,0.11
250.75,0.6482
251.0,0.1084
251.25,0.0024
251.5,-0.0026
251.75,-0.1161
252.0,-0.0021
252.25,0.078
252.5,0.0142
252.75,-0.0037
253.0,-0.0104
253.25,0.0543
253.5,0.0783
253.75,-0.0218
254.0,0.0011
254.25,0.1157
254.5,-0.0067
254.75,0.028
255.0,0.0014
255.25,0.0922
255.5,-0.1019
255.75,0.0669
256.0,-0.0155
256.25,0.0016
256.5,0.0802
256.75,-0.0103
257.0,-0.0013
257.25,0.0001
257.5,0.0251
257.75,0.6626
258.0,0.0912
258.25,0.0124
258.5,-0.0242
258.75,-0.0978
259.0,-0.0025
259.25,0.0117
259.5,-0.0105
259.75,0.0118
260.0,-0.0296
260.25,0.149
260.5,-0.0085
260.75,0.1156
261.0,0.0611
261.25,0.013
261.5,-0.0127
261.75,0.1754
262.0,-0.0011
262.25,-0.0034
262.5,-0.0038
262.75,-0.0153
263.0,0.1555
263.25,0.0413
263.5,0.0026
263.75,-0.0091
264.0,0.0066
264.25,-0.0599
264.5,0.1475
264.75,0.0026
265.0,-0.0097
265.25,-0.113
265.5,0.1169
265.75,-0.001
266.0,0.1364
266.25,-0.008
266.5,0.2465
266.75,0.0079
267.0,0.0052
267.25,0.0669
267.5,0.1235
267.75,0.0036
268.0,-0.0015
268.25,-0.0188
268.5,0.007
268.75,0.012
269.0,0.0009
269.25,0.0175
269.5,0.0733
269.75,0.0053
270.0,-0.004
270.25,0.0149
270.5,0.1448
270.75,-0.0097
271.0,0.111
271.25,0.0104
271.5,0.1269
271.75,0.0154
272.0,-0.0106
272.25,-0.0004
272.5,0.009
272.75,0.0012
273.0,-0.0117
273.25,0.0579
273.5,0.1687
273.75,-0.0105
274.0,-0.0085
274.25,-0.0141
274.5,0.0928
274.75,0.086
275.0,0.0343
275.25,-0.02
275.5,0.0742
275.75,0.007
276.0,-0.0008
276.25,0.0548
276.5,0.0069
276.75,0.0131
277.0,-0.1158
277.25,-0.0022
277.5,-0.003
277.75,-0.0211
278.0,0.7209
278.25,0.0239
278.5,-0.0058
278.75,0.1027
279.0,0.7721
279.25,-0.0048
279.5,0.0009
279.75,-0.0112
280.0,0.0116
280.25,0.0947
280.5,-0.0024
280.75,-0.0056
281.0,0.1152
281.25,-0.1047
281.5,0.0716
281.75,0.0424
282.0,-0.0229
282.25,0.0392
282.5,-0.0209
282.75,0.0137
283.0,0.0857
283.25,0.0047
283.5,0.1484
283.75,0.0197
284.0,-0.0739
284.25,0.0699
284.5,0.0041
284.75,0.0682
285.0,-0.0065
285.25,0.0301
285.5,0.0642
285.75,0.0377
286.0,-0.0183
286.25,0.1146
286.5,0.009
286.75,-0.0195
287.0,-0.0067
287.25,-0.0014
287.5,0.0237
287.75,0.0111
288.0,0.0457
288.25,0.0446
288.5,0.7911
288.75,0.0639
289.0,0.003
289.25,0.0103
289.5,0.0184
289.75,0.0214
290.0,0.063
290.25,0.1048
290.5,0.0149
290.75,0.0483
291.0,-0.038
291.25,0.0041
291.5,0.0137
291.75,0.0844
292.0,0.0229
292.25,0.0075
292.5,0.7788
292.75,-0.0071
293.0,-0.0074
293.25,0.0025
293.5,0.0098
293.75,0.1159
294.0,-0.0201
294.25,0.1519
294.5,-0.0381
294.75,-0.0078
295.0,0.0004
295.25,0.7805
295.5,0.0083
295.75,-0.0199
296.0,-0.0353
296.25,0.0046
296.5,0.0033
296.75,-0.0122
297.0,-0.006
297.25,0.1381
297.5,0.0095
297.75,0.1004
298.0,-0.0038
298.25,0.0784
298.5,0.2988
298.75,-0.002
299.0,-0.0202
299.25,0.008
299.5,-0.0042
299.75,0.0003
300.0,0.1383
300.25,0.1351
300.5,0.1073
300.75,0.0253
301.0,-0.003
301.25,0.0132
301.5,0.064
301.75,0.002
302.0,0.0099
302.25,-0.0081
302.5,-0.0176
302.75,0.1441
303.0,-0.0012
303.25,-0.0419
303.5,0.0136
303.75,0.009
304.0,-0.0003
304.25,0.0044
304.5,-0.0102
304.75,0.0031
305.0,0.073
305.25,-0.0108
305.5,0.1485
305.75,-0.0195
306.0,0.0394
306.25,0.1478
306.5,-0.0183
306.75,-0.0542
307.0,0.0618
307.25,0.1492
307.5,-0.006
307.75,0.1612
308.0,0.0514
308.25,0.001
308.5,-0.0011
308.75,0.0691
309.0,0.0028
309.25,-0.0111
309.5,-0.1078
309.75,0.0094
310.0,0.0678
310.25,-0.0038
310.5,0.1056
310.75,0.7855
311.0,-0.0094
311.25,0.1154
311.5,0.1232
311.75,0.781
312.0,0.0937
312.25,0.0166
312.5,0.0791
312.75,0.1835
313.0,0.0678
313.25,0.0099
313.5,0.0679
313.75,0.0063
314.0,-0.0135
314.25,0.0106
314.5,-0.0037
314.75,0.0026
315.0,0.0807
315.25,-0.0093
315.5,0.0056
315.75,0.0157
316.0,-0.025
316.25,0.4322
316.5,0.0273
316.75,0.4066
317.0,0.1528
317.25,0.1264
317.5,-0.0058
317.75,-0.0188
318.0,0.0084
318.25,-0.1059
318.5,0.0626
318.75,-0.011
319.0,0.0336
319.25,-0.0103
319.5,0.0219
319.75,0.0145
320.0,0.0005
320.25,0.0182
320.5,-0.1068
320.75,-0.0075
321.0,-0.0025
321.25,0.0623
321.5,0.033
321.75,-0.041
322.0,0.0068
322.25,0.0023
322.5,0.033
322.75,-0.0353
323.0,0.0166
323.25,0.1019
323.5,0.0092
323.75,-0.0137
324.0,-0.0019
324.25,0.0833
324.5,-0.0344
324.75,0.015
325.0,-0.0018
325.25,0.0165
325.5,0.0055
325.75,-0.0064
326.0,0.0447
326.25,-0.0163
326.5,-0.0223
326.75,0.0543
327.0,0.0279
327.25,0.0164
327.5,-0.0076
327.75,-0.0256
328.0,0.004
328.25,0.0135
328.5,0.1419
328.75,0.0904
329.0,-0.0053
329.25,0.1228
329.5,-0.002
329.75,0.0525
330.0,0.0303
330.25,0.1195
330.5,0.0677
330.75,0.0778
331.0,0.1272
331.25,-0.0381
331.5,0.0745
331.75,0.005
332.0,0.0027
332.25,0.0013
332.5,0.035
332.75,-0.0116
333.0,-0.0087
333.25,0.0357
333.5,-0.0216
333.75,0.0032
334.0,0.0887
334.25,-0.0319
334.5,-0.0065
334.75,0.0038
335.0,-0.0082
335.25,-0.0835
335.5,0.0222
335.75,0.0571
336.0,0.0698
336.25,0.0149
336.5,0.0594
336.75,-0.0049
337.0,-0.0072
337.25,0.0101
337.5,0.0595
337.75,0.0203
338.0,-0.0022
338.25,0.0028
338.5,0.4188
338.75,0.1538
339.0,0.1415
339.25,0.0163
339.5,0.1112
339.75,-0.0111
340.0,-0.0054
340.25,0.0022
340.5,-0.0068
340.75,0.0672
341.0,0.0069
341.25,0.1601
341.5,0.7438
341.75,0.0071
342.0,0.0091
342.25,0.0209
342.5,0.1883
342.75,-0.0098
343.0,0.0015
343.25,-0.0043
343.5,-0.0328
343.75,0.1645
344.0,0.0924
344.25,0.0198
344.5,0.7035
344.75,0.0176
345.0,-0.0042
345.25,0.0951
345.5,-0.0308
345.75,0.0055
346.0,0.72
346.25,0.0089
346.5,-0.0069
346.75,0.0011
347.0,0.0269
347.25,0.0012
347.5,-0.0146
347.75,0.1413
348.0,-0.0039
348.25,0.1546
348.5,-0.0109
348.75,0.0426
349.0,0.053
349.25,0.0997
349.5,-0.0016
349.75,0.0172
350.0,0.1473
350.25,-0.0457
350.5,-0.0108
350.75,0.0042
351.0,0.0533
351.25,0.1434
351.5,-0.0061
351.75,0.1618
352.0,0.0257
352.25,-0.0071
352.5,0.0111
352.75,0.1554
353.0,0.282
353.25,-0.0049
353.5,0.0575
353.75,0.0125
354.0,0.0057
354.25,0.1731
354.5,0.0624
354.75,0.5346
355.0,0.0895
355.25,0.0706
355.5,0.0011
355.75,0.0076
356.0,-0.0299
356.25,0.1476
356.5,0.0846
356.75,0.4812
357.0,-0.0443
357.25,0.2135
357.5,-0.0132
357.75,0.001
358.0,0.0024
358.25,0.1492
358.5,0.0001
358.75,-0.0093
359.0,-0.0021
359.25,0.145
359.5,-0.0003
359.75,0.0483
360.0,-0.0021
360.25,0.1217
360.5,-0.0074
360.75,0.0025
361.0,-0.0206
361.25,0.0217
361.5,0.0566
361.75,0.0422
362.0,-0.0153
362.25,0.0891
362.5,-0.0043
362.75,0.087
363.0,0.0105
363.25,0.025
363.5,-0.0232
363.75,-0.0198
364.0,-0.0156
364.25,-0.0005
364.5,0.0672
364.75,-0.0188
365.0,-0.0066
365.25,0.0167
365.5,-0.004
365.75,-0.001
366.0,0.1124
366.25,0.0078
366.5,0.0141
366.75,0.0062
367.0,0.0107
367.25,0.0068
367.5,0.7896
367.75,-0.0658
368.0,0.0025
368.25,-0.0127
368.5,-0.0034
368.75,0.0014
369.0,-0.0147
369.25,0.3699
369.5,0.025
369.75,0.0808
370.0,0.0056
370.25,-0.0328
370.5,0.1386
370.75,-0.0054
371.0,0.0061
371.25,0.1406
371.5,0.0012
371.75,-0.0
372.0,0.7908
372.25,0.1577
372.5,-0.0011
372.75,-0.0047
373.0,-0.0153
373.25,0.0124
373.5,-0.0046
373.75,-0.0149
374.0,0.0373
374.25,0.0002
374.5,0.0008
374.75,0.069
375.0,-0.0116
375.25,0.0042
375.5,-0.0081
375.75,0.047
376.0,0.0074
376.25,-0.018
376.5,0.0004
376.75,0.0125
377.0,0.0078
377.25,0.0751
377.5,0.071
377.75,-0.0086
378.0,-0.0278
378.25,0.0496
378.5,0.0956
378.75,-0.0033
379.0,0.0758
379.25,0.5874
379.5,0.1309
379.75,0.0237
380.0,0.0951
380.25,0.0088
380.5,0.1289
380.75,0.0071
381.0,-0.0049
381.25,0.0162
381.5,0.0016
381.75,-0.0094
382.0,0.0234
382.25,0.0082
382.5,0.4835
382.75,-0.0128
383.0,0.0045
383.25,0.0119
383.5,0.0333
383.75,0.7546
384.0,0.0116
384.25,0.0904
384.5,0.0076
384.75,0.0161
385.0,-0.01
385.25,-0.0219
385.5,0.0018
385.75,-0.0164
386.0,0.0935
386.25,0.0406
386.5,-0.0021
386.75,0.1314
387.0,0.1257
387.25,-0.022
387.5,0.0643
387.75,-0.0008
388.0,0.0059
388.25,0.0021
388.5,-0.0168
388.75,0.8097
389.0,0.0035
389.25,0.0298
389.5,0.003
389.75,0.0022
390.0,0.0096
390.25,0.5823
390.5,-0.0012
390.75,0.0154
391.0,0.141
391.25,-0.0055
391.5,-0.0143
391.75,-0.0079
392.0,-0.0117
392.25,-0.014
392.5,-0.0002
392.75,0.1535
393.0,-0.0998
393.25,0.06
393.5,0.0035
393.75,0.0167
394.0,0.0619
394.25,0.0531
394.5,0.0685
394.75,0.1421
395.0,0.111
395.25,0.0153
395.5,-0.0112
395.75,-0.0015
396.0,0.1006
396.25,0.003
396.5,0.1115
396.75,0.2116
397.0,-0.0001
397.25,0.006
397.5,-0.1005
397.75,0.027
398.0,-0.012
398.25,0.0079
398.5,-0.0019
398.75,-0.0069
399.0,0.0365
399.25,0.0089
399.5,0.0118
399.75,0.0038
400.0,0.0195
400.25,-0.0
400.5,0.0142
400.75,-0.1167
401.0,-0.0559
401.25,0.0251
401.5,0.0181
401.75,0.0203
402.0,-0.0011
402.25,-0.004
402.5,0.7853
402.75,0.0101
403.0,0.0466
403.25,0.1284
403.5,0.1286
403.75,0.096
404.0,-0.0057
404.25,0.1455
404.5,0.0633
404.75,0.017
405.0,0.0043
405.25,-0.0253
405.5,0.0521
405.75,-0.0485
406.0,-0.0122
406.25,0.0945
406.5,0.013
406.75,-0.0159
407.0,-0.0079
407.25,0.014
407.5,-0.0118
407.75,0.0236
408.0,-0.002
408.25,0.0682
408.5,0.0678
408.75,-0.0163
409.0,0.0106
409.25,-0.017
409.5,0.0172
409.75,0.0179
410.0,0.0075
410.25,0.1157
410.5,0.1318
410.75,0.0012
411.0,0.094
411.25,0.0618
411.5,-0.0004
411.75,0.079
412.0,0.512
412.25,0.0258
412.5,-0.0001
412.75,0.092
413.0,-0.0125
413.25,0.1056
413.5,0.0578
413.75,-0.0764
414.0,0.1101
414.25,0.1351
414.5,0.0016
414.75,-0.0025
415.0,-0.0167
415.25,0.0021
415.5,0.0215
415.75,0.0049
416.0,-0.0052
416.25,-0.0107
416.5,-0.0109
416.75,0.0019
417.0,0.0121
417.25,0.4211
417.5,0.0419
417.75,0.0218
418.0,0.0049
418.25,-0.0283
418.5,-0.0315
418.75,-0.0035
419.0,-0.0055
419.25,0.0048
419.5,0.0804
419.75,0.0025
420.0,0.0166
420.25,0.1103
420.5,0.216
420.75,0.0105
421.0,0.0633
421.25,-0.0133
421.5,0.0616
421.75,0.0916
422.0,-0.0081
422.25,-0.0073
422.5,-0.0016
422.75,0.0165
423.0,0.0076
423.25,0.0234
423.5,0.4171
423.75,-0.002
424.0,0.1217
424.25,0.0144
424.5,0.0291
424.75,0.0548
425.0,0.0533
425.25,0.1392
425.5,0.0699
425.75,-0.0189
426.0,-0.0091
426.25,-0.0029
426.5,-0.1129
426.75,0.0343
427.0,-0.0249
427.25,-0.0094
427.5,0.0018
427.75,-0.0004
428.0,-0.003
428.25,-0.0225
428.5,0.1576
428.75,0.0051
429.0,0.1261
429.25,0.6399
429.5,0.0238
429.75,0.1336
430.0,0.0086
430.25,0.0598
430.5,0.0017
430.75,0.7221
431.0,-0.0112
431.25,-0.0116
431.5,0.0854
431.75,-0.015
432.0,0.046
432.25,0.0143
432.5,-0.0124
432.75,0.1796
433.0,-0.0051
433.25,-0.0154
433.5,0.0035
433.75,0.2888
434.0,0.0153
434.25,-0.0048
434.5,-0.0072
434.75,0.0961
435.0,-0.0116
435.25,-0.0
435.5,0.0295
435.75,-0.0363
436.0,0.0748
436.25,0.0224
436.5,-0.005
436.75,0.0045
437.0,0.0234
437.25,-0.0076
437.5,-0.0945
437.75,-0.0432
438.0,0.0273
438.25,0.0836
438.5,-0.0019
438.75,0.1365
439.0,0.0103
439.25,0.0842
439.5,-0.0012
439.75,0.1428
440.0,-0.121
440.25,0.0613
440.5,0.0132
440.75,-0.0155
441.0,-0.0057
441.25,0.7398
441.5,0.0759
441.75,0.0365
442.0,0.0131
442.25,0.001
442.5,-0.0065
442.75,-0.001
443.0,-0.0132
443.25,0.0112
443.5,0.5217
443.75,-0.001
444.0,-0.0068
444.25,0.0019
444.5,0.0717
444.75,0.0874
445.0,0.0227
445.25,0.0008
445.5,0.0264
445.75,-0.0109
446.0,-0.0028
446.25,0.1023
446.5,-0.0088
446.75,-0.0052
447.0,-0.0006
447.25,-0.0062
447.5,0.0752
447.75,0.0019
448.0,0.0924
448.25,0.0608
448.5,0.1344
448.75,-0.014
449.0,0.0406
449.25,0.0068
449.5,-0.0113
449.75,-0.0004
450.0,0.1356
450.25,0.0039
450.5,-0.108
450.75,0.0037
451.0,-0.0234
451.25,0.007
451.5,0.0241
451.75,0.7588
452.0,-0.0058
452.25,0.0358
452.5,0.0051
452.75,0.7222
453.0,0.0937
453.25,0.0106
453.5,-0.0036
453.75,0.0065
454.0,0.005
454.25,0.0975
454.5,0.003
454.75,-0.0083
455.0,0.0059
455.25,0.0003
455.5,0.0341
455.75,0.0123
456.0,-0.0048
456.25,-0.0041
456.5,0.1506
456.75,-0.0119
457.0,0.1062
457.25,0.0066
457.5,0.1553
457.75,0.009
458.0,0.0292
458.25,-0.0054
458.5,-0.0155
458.75,0.0009
459.0,0.0021
459.25,0.0042
459.5,0.0154
459.75,0.0232
460.0,0.0279
460.25,-0.0173
460.5,-0.0053
460.75,-0.0162
461.0,0.0214
461.25,0.1547
461.5,0.0193
461.75,0.1328
462.0,-0.0116
462.25,0.0516
462.5,-0.0155
462.75,0.0562
463.0,0.0737
463.25,0.001
463.5,-0.0036
463.75,-0.1216
464.0,0.0027
464.25,0.0036
464.5,0.007
464.75,0.6791
465.0,0.0526
465.25,-0.0113
465.5,-0.01
465.75,0.0918
466.0,0.0647
466.25,0.0336
466.5,0.1227
466.75,-0.01
467.0,0.007
467.25,-0.001
467.5,0.0965
467.75,-0.0168
468.0,-0.0002
468.25,0.0111
468.5,-0.002
468.75,0.0145
469.0,0.0093
469.25,0.0222
469.5,-0.017
469.75,0.5039
470.0,0.0042
470.25,0.1249
470.5,-0.0062
470.75,-0.0102
471.0,0.0967
471.25,0.1277
471.5,0.6766
471.75,-0.0022
472.0,0.0253
472.25,0.03
472.5,-0.0131
472.75,0.0035
473.0,-0.1152
473.25,-0.0008
473.5,-0.001
473.75,0.0066
474.0,0.0028
474.25,0.0902
474.5,0.0098
474.75,0.3338
475.0,-0.0101
475.25,-0.0474
475.5,0.1267
475.75,0.1579
476.0,0.1463
476.25,0.0031
476.5,0.0627
476.75,-0.0104
477.0,-0.0081
477.25,0.0006
477.5,0.0141
477.75,0.0804
478.0,0.0055
478.25,0.003
478.5,0.0034
478.75,0.0449
479.0,0.7599
479.25,-0.01
479.5,-0.003
479.75,0.0564
