time,ecg
0.0,-0.0313
0.25,-0.0073
0.5,0.0156
0.75,-0.0087
1.0,0.011
1.25,-0.0157
1.5,0.5282
1.75,0.033
2.0,-0.0295
2.25,0.0032
2.5,0.6209
2.75,0.0175
3.0,-0.0048
3.25,0.0059
3.5,-0.0686
3.75,-0.0087
4.0,0.0371
4.25,0.814
4.5,0.0516
4.75,-0.0086
5.0,-0.0006
5.25,0.0608
5.5,0.0232
5.75,0.0073
6.0,0.1051
6.25,0.0093
6.5,0.0625
6.75,0.6995
7.0,0.0188
7.25,-0.0106
7.5,-0.007
7.75,0.0209
8.0,0.1501
8.25,0.0643
8.5,-0.1057
8.75,0.0101
9.0,0.5269
9.25,-0.0061
9.5,0.0681
9.75,0.0206
10.0,0.0106
10.25,0.0509
10.5,-0.0053
10.75,0.009
11.0,-0.006
11.25,0.0002
11.5,0.0118
11.75,0.0681
12.0,0.0214
12.25,-0.0082
12.5,0.0561
12.75,0.0072
13.0,0.3492
13.25,0.0228
13.5,0.0816
13.75,0.0772
14.0,-0.023
14.25,-0.0149
14.5,-0.0121
14.75,-0.0031
15.0,0.1172
15.25,0.169
15.5,-0.0134
15.75,0.2191
16.0,0.0168
16.25,0.0737
16.5,-0.0092
16.75,0.0478
17.0,-0.0159
17.25,0.0177
17.5,0.003
17.75,0.0015
18.0,0.0039
18.25,-0.013
18.5,-0.0308
18.75,0.002
19.0,0.0242
19.25,-0.0034
19.5,0.0702
19.75,0.016
20.0,0.7307
20.25,-0.0095
20.5,-0.0189
20.75,0.005
21.0,0.0034
21.25,0.0475
21.5,0.0038
21.75,0.006
22.0,0.0092
22.25,0.0097
22.5,0.479
22.75,-0.0095
23.0,-0.0101
23.25,0.0841
23.5,0.0076
23.75,-0.0083
24.0,0.0496
24.25,0.0214
24.5,0.0504
24.75,0.0734
25.0,0.0212
25.25,0.006
25.5,0.0039
25.75,0.1362
26.0,0.8058
26.25,0.1366
26.5,-0.0411
26.75,0.0705
27.0,0.0755
27.25,0.0189
27.5,0.5629
27.75,0.0008
28.0,0.0295
28.25,-0.0142
28.5,0.1289
28.75,-0.0037
29.0,0.0063
29.25,-0.0094
29.5,-0.011
29.75,0.0067
30.0,-0.0073
30.25,-0.0088
30.5,-0.015
30.75,0.0121
31.0,0.0052
31.25,0.0061
31.5,0.0057
31.75,0.0046
32.0,0.0062
32.25,0.0497
32.5,-0.0002
32.75,0.0424
33.0,0.0951
33.25,0.2516
33.5,0.003
33.75,-0.0042
34.0,-0.0051
34.25,0.0089
34.5,0.0027
34.75,-0.005
35.0,0.0021
35.25,-0.0119
35.5,0.518
35.75,-0.0147
36.0,0.0
36.25,-0.0154
36.5,-0.0001
36.75,0.0096
37.0,0.0167
37.25,-0.0218
37.5,0.7889
37.75,-0.0149
38.0,0.0204
38.25,0.1416
38.5,-0.0115
38.75,0.1088
39.0,0.1015
39.25,0.0045
39.5,-0.004
39.75,0.1308
40.0,-0.0074
40.25,0.6196
40.5,0.1324
40.75,0.1458
41.0,0.0062
41.25,0.0099
41.5,-0.009
41.75,0.0491
42.0,0.0161
42.25,0.0491
42.5,0.0059
42.75,-0.0183
43.0,0.0021
43.25,0.0016
43.5,0.4191
43.75,-0.0075
44.0,-0.0072
44.25,0.0035
44.5,0.0052
44.75,0.1365
45.0,-0.0116
45.25,-0.0075
45.5,0.0033
45.75,0.0161
46.0,0.0824
46.25,0.1578
46.5,-0.0147
46.75,-0.0126
47.0,-0.0445
47.25,-0.002
47.5,0.0149
47.75,-0.0481
48.0,0.0986
48.25,0.0141
48.5,-0.0228
48.75,0.0006
49.0,0.6913
49.25,-0.1123
49.5,-0.0044
49.75,0.0045
50.0,0.0065
50.25,0.0221
50.5,0.0255
50.75,-0.0006
51.0,0.1214
51.25,0.0984
51.5,0.8068
51.75,0.0022
52.0,0.1321
52.25,0.1266
52.5,0.0065
52.75,0.1623
53.0,-0.0079
53.25,0.0098
53.5,0.0538
53.75,0.1372
54.0,-0.0002
54.25,0.0143
54.5,-0.0015
54.75,0.0086
55.0,0.0046
55.25,0.0345
55.5,-0.017
55.75,0.0156
56.0,0.0539
56.25,-0.0173
56.5,-0.1235
56.75,0.0183
57.0,-0.0088
57.25,-0.0024
57.5,-0.0047
57.75,0.0041
58.0,-0.0212
58.25,0.51
58.5,-0.1331
58.75,0.1428
59.0,0.0445
59.25,0.1336
59.5,0.039
59.75,-0.012
60.0,0.0697
60.25,0.1505
60.5,0.0871
60.75,-0.0049
61.0,0.0357
61.25,0.1431
61.5,-0.0374
61.75,0.0656
62.0,-0.002
62.25,0.0699
62.5,0.1482
62.75,0.0041
63.0,0.0798
63.25,0.0081
63.5,0.0044
63.75,0.0052
64.0,0.169
64.25,-0.0049
64.5,-0.0039
64.75,0.0176
65.0,0.0076
65.25,0.0914
65.5,-0.0
65.75,0.0044
66.0,0.0553
66.25,-0.0265
66.5,0.0074
66.75,-0.0158
67.0,0.0531
67.25,-0.0217
67.5,0.0001
67.75,0.0018
68.0,0.0818
68.25,-0.0158
68.5,-0.0045
68.75,0.0045
69.0,0.1455
69.25,-0.0118
69.5,0.023
69.75,-0.0032
70.0,0.0149
70.25,-0.0061
70.5,0.0102
70.75,0.0092
71.0,-0.0119
71.25,0.0595
71.5,0.0059
71.75,0.0155
72.0,0.0082
72.25,0.0275
72.5,0.0079
72.75,-0.0003
73.0,0.005
73.25,0.0493
73.5,0.0022
73.75,0.1959
74.0,0.0134
74.25,0.0064
74.5,-0.0063
74.75,0.0025
75.0,-0.0081
75.25,0.7726
75.5,0.0133
75.75,-0.0014
76.0,0.0079
76.25,0.1103
76.5,-0.0043
76.75,-0.0163
77.0,0.5192
77.25,0.1384
77.5,0.0872
77.75,0.0192
78.0,0.0427
78.25,0.0162
78.5,-0.0036
78.75,0.1237
79.0,0.1059
79.25,-0.0152
79.5,0.0033
79.75,0.0128
80.0,-0.0171
80.25,-0.0117
80.5,0.0597
80.75,-0.0047
81.0,0.1834
81.25,-0.0012
81.5,0.8186
81.75,0.0778
82.0,0.0047
82.25,-0.0208
82.5,0.0865
82.75,0.0166
83.0,0.062
83.25,0.0196
83.5,0.1396
83.75,-0.0204
84.0,0.0047
84.25,0.0124
84.5,0.0653
84.75,-0.0033
85.0,0.0257
85.25,0.3077
85.5,-0.0011
85.75,0.003
86.0,0.0071
86.25,-0.0047
86.5,0.0106
86.75,-0.0129
87.0,0.0699
87.25,0.1001
87.5,0.0908
87.75,0.1978
88.0,0.0569
88.25,0.0078
88.5,0.0314
88.75,0.0041
89.0,-0.0142
89.25,0.0001
89.5,0.4098
89.75,-0.0512
90.0,-0.023
90.25,0.0174
90.5,0.0743
90.75,0.1145
91.0,-0.0155
91.25,0.148
91.5,-0.0176
91.75,0.0091
92.0,-0.0336
92.25,-0.0072
92.5,0.0795
92.75,0.1467
93.0,0.1597
93.25,-0.0067
93.5,0.0102
93.75,0.0331
94.0,-0.002
94.25,0.1474
94.5,0.1049
94.75,-0.0136
95.0,0.0099
95.25,0.1306
95.5,0.064
95.75,-0.0046
96.0,-0.0052
96.25,-0.0092
96.5,0.0069
96.75,0.0223
97.0,0.0001
97.25,0.014
97.5,-0.002
97.75,0.1194
98.0,-0.0275
98.25,0.0204
98.5,0.1101
98.75,-0.0143
99.0,0.0128
99.25,0.7661
99.5,0.1578
99.75,-0.0083
100.0,-0.02
100.25,0.1127
100.5,0.0979
100.75,0.0569
101.0,-0.0015
101.25,-0.0004
101.5,0.0636
101.75,0.014
102.0,-0.0106
102.25,0.0022
102.5,0.0896
102.75,0.0397
103.0,0.0742
103.25,-0.0157
103.5,-0.1034
103.75,0.0084
104.0,-0.0069
104.25,0.2798
104.5,0.0673
104.75,0.0018
105.0,0.0143
105.25,0.0445
105.5,0.0891
105.75,0.0637
106.0,-0.0049
106.25,0.119
106.5,-0.0334
106.75,0.1078
107.0,0.1084
107.25,-0.0175
107.5,0.7967
107.75,0.0053
108.0,0.0242
108.25,0.0987
108.5,0.1293
108.75,0.0617
109.0,-0.0245
109.25,0.0984
109.5,0.0709
109.75,-0.0103
110.0,0.0152
110.25,0.1354
110.5,0.1454
110.75,0.0012
111.0,0.0034
111.25,-0.003
111.5,-0.0025
111.75,-0.0287
112.0,0.0083
112.25,0.0255
112.5,-0.0394
112.75,0.788
113.0,-0.0109
113.25,0.0238
113.5,0.026
113.75,0.0697
114.0,0.0173
114.25,-0.0042
114.5,0.0593
114.75,0.0115
115.0,0.0207
115.25,0.0589
115.5,0.4664
115.75,0.0204
116.0,-0.0757
116.25,0.0007
116.5,0.0045
116.75,-0.0077
117.0,0.0086
117.25,-0.005
117.5,0.1592
117.75,0.0069
118.0,-0.0046
118.25,-0.0035
118.5,-0.0026
118.75,0.0567
119.0,0.0797
119.25,-0.0005
119.5,0.0101
119.75,0.6921
120.0,-0.0168
120.25,0.0351
120.5,0.0313
120.75,0.781
121.0,-0.004
121.25,0.0665
121.5,-0.0146
121.75,0.0328
122.0,0.0026
122.25,0.019
122.5,0.1425
122.75,0.0129
123.0,0.0304
123.25,0.0053
123.5,0.0181
123.75,0.0599
124.0,-0.0096
124.25,0.0177
124.5,0.0492
124.75,-0.0059
125.0,0.0431
125.25,0.0201
125.5,0.0937
125.75,0.007
126.0,-0.0147
126.25,-0.0056
126.5,0.1447
126.75,-0.0226
127.0,0.124
127.25,0.0158
127.5,0.0246
127.75,0.0008
128.0,-0.0037
128.25,0.7718
128.5,0.0077
128.75,0.0632
129.0,-0.0162
129.25,0.0383
129.5,0.0186
129.75,-0.0106
130.0,0.0065
130.25,0.6356
130.5,0.075
130.75,-0.0082
131.0,0.0709
131.25,-0.0176
131.5,0.0018
131.75,-0.0157
132.0,0.7479
132.25,0.0848
132.5,0.0051
132.75,0.1294
133.0,0.0532
133.25,0.8063
133.5,0.0008
133.75,0.0276
134.0,0.0168
134.25,0.0169
134.5,0.1452
134.75,0.0891
135.0,0.0587
135.25,0.6318
135.5,0.7478
135.75,0.0015
136.0,0.5975
136.25,-0.0894
136.5,-0.0032
136.75,0.0953
137.0,-0.1085
137.25,0.0069
137.5,0.4739
137.75,-0.0145
138.0,-0.0196
138.25,0.0245
138.5,-0.0082
138.75,0.0347
139.0,-0.1152
139.25,0.0756
139.5,0.0016
139.75,-0.0224
140.0,-0.0068
140.25,0.0049
140.5,0.0112
140.75,0.0072
141.0,0.0528
141.25,-0.0125
141.5,0.1157
141.75,-0.0037
142.0,0.0886
142.25,0.1053
142.5,0.0905
142.75,-0.0235
143.0,-0.0211
143.25,0.094
143.5,0.0112
143.75,0.0049
144.0,-0.0045
144.25,0.0007
144.5,0.1021
144.75,-0.0454
145.0,-0.0166
145.25,-0.004
145.5,0.0042
145.75,0.064
146.0,0.2983
146.25,-0.013
146.5,0.0089
146.75,0.007
147.0,-0.0098
147.25,0.1273
147.5,0.0074
147.75,0.0025
148.0,0.1571
148.25,0.0162
148.5,0.0412
148.75,0.0664
149.0,0.1762
149.25,0.0206
149.5,0.0062
149.75,0.0091
150.0,0.0732
150.25,-0.0054
150.5,0.0051
150.75,0.0107
151.0,0.144
151.25,-0.0036
151.5,0.0097
151.75,0.0482
152.0,-0.0067
152.25,0.0079
152.5,0.0204
152.75,-0.0124
153.0,0.014
153.25,0.0888
153.5,0.0586
153.75,0.2231
154.0,0.0023
154.25,0.0123
154.5,0.1096
154.75,-0.0069
155.0,-0.0152
155.25,0.0951
155.5,0.005
155.75,0.0651
156.0,0.0873
156.25,-0.0225
156.5,-0.0861
156.75,0.0106
157.0,0.0425
157.25,0.0152
157.5,0.0289
157.75,0.1196
158.0,0.0853
158.25,0.1496
158.5,0.7848
158.75,-0.1149
159.0,0.0751
159.25,-0.0045
159.5,0.0088
159.75,0.0144
160.0,-0.0019
160.25,-0.0003
160.5,-0.0018
160.75,0.5742
161.0,-0.0102
161.25,-0.0067
161.5,0.1258
161.75,0.0271
162.0,-0.0096
162.25,0.0023
162.5,0.0068
162.75,-0.0946
163.0,0.0001
163.25,0.1442
163.5,0.0003
163.75,0.0009
164.0,0.0131
164.25,-0.0073
164.5,-0.0057
164.75,-0.0125
165.0,0.0285
165.25,0.003
165.5,-0.0096
165.75,0.1285
166.0,-0.0089
166.25,0.0231
166.5,-0.0072
166.75,-0.0247
167.0,-0.0032
167.25,0.0021
167.5,0.0194
167.75,-0.0093
168.0,0.8085
168.25,0.0094
168.5,-0.0103
168.75,0.0028
169.0,0.0369
169.25,-0.0074
169.5,0.0618
169.75,0.0074
170.0,0.0057
170.25,0.0117
170.5,-0.0119
170.75,0.0024
171.0,-0.012
171.25,-0.0023
171.5,-0.0043
171.75,0.1312
172.0,0.0061
172.25,0.7937
172.5,0.0005
172.75,0.0677
173.0,0.0662
173.25,0.0036
173.5,0.0139
173.75,0.0045
174.0,0.0001
174.25,0.0002
174.5,0.0031
174.75,0.0649
175.0,0.0108
175.25,-0.0111
175.5,0.0611
175.75,-0.0025
176.0,0.0859
176.25,0.0729
176.5,0.1376
176.75,0.0239
177.0,-0.0001
177.25,0.0457
177.5,0.1143
177.75,0.1478
178.0,0.0827
178.25,0.0039
178.5,0.0112
178.75,0.1734
179.0,-0.0104
179.25,-0.0028
179.5,0.1059
179.75,0.0517
180.0,-0.0107
180.25,-0.0051
180.5,-0.0037
180.75,0.0019
181.0,-0.0385
181.25,-0.0041
181.5,0.0739
181.75,-0.0027
182.0,0.0439
182.25,-0.0092
182.5,0.0811
182.75,-0.008
183.0,0.0077
183.25,0.0019
183.5,0.0201
183.75,0.0279
184.0,0.0071
184.25,0.0452
184.5,-0.0025
184.75,0.765
185.0,0.0397
185.25,-0.004
185.5,0.7976
185.75,-0.0066
186.0,-0.0217
186.25,0.0523
186.5,0.0057
186.75,0.0124
187.0,0.0683
187.25,0.0704
187.5,0.0269
187.75,0.0182
188.0,0.0185
188.25,0.0106
188.5,0.0107
188.75,-0.0003
189.0,-0.0079
189.25,0.0021
189.5,-0.0103
189.75,0.7318
190.0,0.0316
190.25,0.1274
190.5,-0.0058
190.75,-0.0145
191.0,0.0067
191.25,-0.0048
191.5,-0.0001
191.75,0.0133
192.0,0.1396
192.25,0.1247
192.5,0.0163
192.75,0.1562
193.0,-0.0562
193.25,0.0374
193.5,0.0005
193.75,-0.0095
194.0,0.0165
194.25,-0.0077
194.5,-0.0134
194.75,0.0007
195.0,0.0098
195.25,0.0161
195.5,-0.0179
195.75,-0.0128
196.0,0.1915
196.25,0.0486
196.5,0.0618
196.75,0.0043
197.0,0.7571
197.25,-0.0001
197.5,0.0214
197.75,-0.0043
198.0,0.0122
198.25,0.1477
198.5,-0.0211
198.75,0.5055
199.0,0.0017
199.25,0.7727
199.5,0.0146
199.75,-0.0182
200.0,0.0021
200.25,-0.0027
200.5,-0.0045
200.75,-0.015
201.0,-0.0125
201.25,0.0354
201.5,0.0109
201.75,-0.0288
202.0,-0.0169
202.25,0.1007
202.5,0.159
202.75,0.0196
203.0,0.0014
203.25,-0.0321
203.5,0.0015
203.75,0.0098
204.0,-0.0046
204.25,0.1153
204.5,0.0574
204.75,0.4516
205.0,-0.0055
205.25,0.0188
205.5,0.3469
205.75,-0.0123
206.0,0.1051
206.25,-0.0068
206.5,-0.0092
206.75,0.0825
207.0,0.0135
207.25,0.095
207.5,0.0176
207.75,0.0978
208.0,0.0936
208.25,-0.0041
208.5,0.0353
208.75,-0.0108
209.0,0.6208
209.25,0.4192
209.5,0.0147
209.75,0.0071
210.0,-0.0185
210.25,0.0094
210.5,-0.0063
210.75,0.0189
211.0,-0.0064
211.25,0.0004
211.5,0.072
211.75,0.0912
212.0,0.0246
212.25,-0.0116
212.5,0.0265
212.75,0.0147
213.0,0.0194
213.25,0.1317
213.5,0.0884
213.75,0.1249
214.0,0.1174
214.25,0.75
214.5,0.1126
214.75,0.0154
215.0,0.0813
215.25,0.0127
215.5,0.0317
215.75,0.0112
216.0,0.6473
216.25,0.0726
216.5,0.1501
216.75,0.0158
217.0,0.0047
217.25,0.0015
217.5,-0.0075
217.75,-0.0338
218.0,0.1218
218.25,0.0888
218.5,0.0066
218.75,-0.0029
219.0,-0.0137
219.25,-0.029
219.5,0.3478
219.75,0.0207
220.0,0.003
220.25,0.0216
220.5,-0.0323
220.75,-0.0181
221.0,-0.0185
221.25,-0.0145
221.5,0.0053
221.75,0.0022
222.0,-0.003
222.25,0.0059
222.5,0.02
222.75,0.1037
223.0,-0.0098
223.25,0.0973
223.5,-0.0037
223.75,0.0045
224.0,0.0631
224.25,0.0926
224.5,0.1285
224.75,-0.0183
225.0,-0.0063
225.25,-0.0073
225.5,0.0343
225.75,0.1208
226.0,-0.026
226.25,0.0011
226.5,0.2167
226.75,0.0835
227.0,0.0003
227.25,0.0206
227.5,0.0712
227.75,-0.0229
228.0,-0.0382
228.25,0.0488
228.5,0.0005
228.75,-0.0037
229.0,0.002
229.25,-0.0022
229.5,0.0137
229.75,0.1395
230.0,0.001
230.25,0.0546
230.5,0.0121
230.75,0.0018
231.0,0.7274
231.25,-0.0119
231.5,0.0507
231.75,-0.0029
232.0,-0.1014
232.25,0.0194
232.5,-0.0013
232.75,0.0144
233.0,0.036
233.25,0.0053
233.5,-0.0166
233.75,0.1557
234.0,0.0014
234.25,0.0443
234.5,0.1378
234.75,-0.0103
235.0,0.075
235.25,0.0045
235.5,0.1433
235.75,0.3419
236.0,-0.0056
236.25,0.0848
236.5,0.0739
236.75,0.814
237.0,0.0121
237.25,0.0015
237.5,-0.0824
237.75,0.0731
238.0,0.0659
238.25,0.008
238.5,0.1204
238.75,0.1577
239.0,0.0154
239.25,-0.0991
239.5,0.0214
239.75,0.0539
240.0,-0.0124
240.25,0.029
240.5,0.0044
240.75,0.0113
241.0,-0.0
241.25,0.0764
241.5,-0.0195
241.75,0.0192
242.0,0.0364
242.25,0.0531
242.5,-0.0014
242.75,-0.0006
243.0,-0.0979
243.25,-0.03
243.5,0.0076
243.75,0.1548
244.0,0.0981
244.25,0.082
244.5,0.1354
244.75,0.0492
245.0,0.006
245.25,0.0028
245.5,0.1544
245.75,0.1292
246.0,0.0231
246.25,0.0027
246.5,0.02
246.75,0.1282
247.0,0.0068
247.25,0.0022
247.5,0.0003
247.75,0.0026
248.0,-0.0137
248.25,-0.0893
248.5,-0.0202
248.75,0.0788
249.0,-0.0087
249.25,0.0501
249.5,0.0037
249.75,-0.0172
250.0,0.0874
250.25,0.0624
250.5,0.0002
250.75,0.0253
251.0,0.1122
251.25,0.1129
251.5,0.5887
251.75,0.0039
252.0,0.0343
252.25,0.1207
252.5,0.1403
252.75,-0.0163
253.0,0.0265
253.25,0.0686
253.5,-0.0184
253.75,0.1378
254.0,-0.0163
254.25,0.0
254.5,0.0075
254.75,0.0718
255.0,0.0521
255.25,0.0648
255.5,0.009
255.75,-0.0148
256.0,0.0069
256.25,0.1277
256.5,0.0134
256.75,0.0059
257.0,-0.0005
257.25,0.0724
257.5,0.0192
257.75,0.0821
258.0,0.0239
258.25,0.0048
258.5,0.0051
258.75,0.093
259.0,0.0001
259.25,0.0026
259.5,0.1425
259.75,-0.0085
260.0,0.042
260.25,0.487
260.5,-0.0108
260.75,0.0569
261.0,0.0293
261.25,0.001
261.5,-0.0015
261.75,-0.0202
262.0,-0.0124
262.25,0.0614
262.5,0.1007
262.75,0.0326
263.0,0.0151
263.25,0.0055
263.5,0.149
263.75,0.0722
264.0,0.0087
264.25,0.0184
264.5,0.397
264.75,0.0768
265.0,0.1501
265.25,-0.0322
265.5,0.0067
265.75,0.0106
266.0,0.0655
266.25,0.0002
266.5,0.0905
266.75,0.0077
267.0,-0.0036
267.25,-0.0308
267.5,0.0077
267.75,0.1456
268.0,0.0014
268.25,-0.0024
268.5,-0.0131
268.75,0.023
269.0,-0.0041
269.25,0.017
269.5,-0.0009
269.75,0.0754
270.0,0.6706
270.25,-0.0003
270.5,0.8161
270.75,0.0
271.0,0.0565
271.25,0.0168
271.5,0.0117
271.75,0.0533
272.0,0.0025
272.25,0.0709
272.5,0.2672
272.75,-0.0094
273.0,-0.1022
273.25,-0.0046
273.5,0.6868
273.75,-0.0009
274.0,0.0001
274.25,0.1125
274.5,0.0696
274.75,-0.0092
275.0,0.0563
275.25,-0.0341
275.5,-0.0174
275.75,-0.0203
276.0,0.0118
276.25,-0.0105
276.5,0.0055
276.75,-0.0008
277.0,0.0539
277.25,0.107
277.5,0.0024
277.75,0.1456
278.0,0.1547
278.25,0.0048
278.5,-0.0106
278.75,-0.0036
279.0,-0.0065
279.25,0.0115
279.5,0.0512
279.75,0.0412
280.0,0.0829
280.25,-0.0225
280.5,0.0268
280.75,0.0129
281.0,0.0069
281.25,-0.0052
281.5,0.0508
281.75,0.0216
282.0,0.3606
282.25,0.0071
282.5,0.0837
282.75,0.0939
283.0,-0.0828
283.25,0.0259
283.5,0.0094
283.75,0.0025
284.0,0.0064
284.25,0.032
284.5,0.004
284.75,0.0141
285.0,0.0037
285.25,0.0892
285.5,0.0545
285.75,0.0841
286.0,-0.014
286.25,-0.0189
286.5,0.0667
286.75,-0.0028
287.0,0.0072
287.25,-0.0038
287.5,-0.0046
287.75,0.0028
288.0,0.0085
288.25,0.0713
288.5,0.0549
288.75,-0.0069
289.0,0.0782
289.25,0.1057
289.5,0.0669
289.75,0.1854
290.0,0.6276
290.25,-0.0134
290.5,0.0647
290.75,-0.0143
291.0,0.1063
291.25,-0.001
291.5,-0.021
291.75,-0.0031
292.0,-0.0105
292.25,0.0014
292.5,-0.0112
292.75,-0.0076
293.0,-0.0094
293.25,0.0101
293.5,-0.0032
293.75,0.0922
294.0,0.0064
294.25,0.0386
294.5,0.0928
294.75,-0.0042
295.0,-0.0185
295.25,0.0115
295.5,0.0131
295.75,-0.0005
296.0,0.1136
296.25,-0.0174
296.5,0.0582
296.75,-0.0059
297.0,0.0788
297.25,0.0088
297.5,-0.0044
297.75,0.0072
298.0,0.0275
298.25,0.0329
298.5,0.0123
298.75,0.1478
299.0,0.0421
299.25,-0.0192
299.5,-0.0013
299.75,-0.0209
300.0,-0.0281
300.25,-0.01
300.5,-0.0044
300.75,0.6085
301.0,0.1518
301.25,0.144
301.5,0.0644
301.75,-0.006
302.0,0.1003
302.25,0.0219
302.5,0.0154
302.75,0.0636
303.0,-0.0071
303.25,0.0096
303.5,0.0675
303.75,0.1607
304.0,0.07
304.25,0.0305
304.5,0.0088
304.75,0.0112
305.0,-0.0013
305.25,0.0142
305.5,0.0529
305.75,0.0867
306.0,0.0037
306.25,0.113
306.5,-0.0014
306.75,-0.0019
307.0,0.0155
307.25,-0.0167
307.5,0.0306
307.75,-0.0119
308.0,-0.1008
308.25,-0.0169
308.5,0.7717
308.75,-0.0067
309.0,0.08
309.25,0.2608
309.5,-0.0021
309.75,0.1494
310.0,0.013
310.25,0.0448
310.5,0.4434
310.75,0.0654
311.0,0.2242
311.25,0.0145
311.5,0.0024
311.75,0.0211
312.0,0.0082
312.25,-0.0108
312.5,0.0916
312.75,0.0415
313.0,0.0452
313.25,-0.0042
313.5,-0.0051
313.75,0.0731
314.0,0.0334
314.25,0.0882
314.5,0.0809
314.75,0.7934
315.0,0.0654
315.25,-0.0116
315.5,-0.0921
315.75,0.0217
316.0,0.0053
316.25,0.0006
316.5,-0.0102
316.75,0.7636
317.0,0.6448
317.25,-0.0465
317.5,0.0808
317.75,0.0144
318.0,-0.0049
318.25,-0.016
318.5,0.0821
318.75,0.0244
319.0,0.0742
319.25,-0.0014
319.5,-0.0196
319.75,0.1302
320.0,0.0326
320.25,0.0336
320.5,0.0148
320.75,0.1531
321.0,-0.0004
321.25,0.0483
321.5,0.0352
321.75,0.0807
322.0,-0.0036
322.25,0.1171
322.5,0.0623
322.75,-0.0046
323.0,0.005
323.25,-0.0158
323.5,0.011
323.75,0.0097
324.0,-0.0139
324.25,0.0103
324.5,0.0582
324.75,-0.0179
325.0,-0.0024
325.25,0.0145
325.5,0.0665
325.75,0.0227
326.0,-0.0054
326.25,0.1536
326.5,-0.1169
326.75,-0.1202
327.0,-0.0218
327.25,0.8186
327.5,0.0192
327.75,-0.0024
328.0,0.0198
328.25,0.0575
328.5,0.0058
328.75,0.0109
329.0,0.0532
329.25,0.1338
329.5,0.021
329.75,0.0069
330.0,0.0134
330.25,0.039
330.5,-0.004
330.75,0.128
331.0,0.0268
331.25,0.018
331.5,-0.0175
331.75,-0.0015
332.0,0.0513
332.25,0.1607
332.5,-0.015
332.75,0.1387
333.0,0.0427
333.25,0.7813
333.5,0.0087
333.75,0.0119
334.0,-0.0036
334.25,0.0123
334.5,-0.0196
334.75,0.0829
335.0,0.0006
335.25,0.0066
335.5,0.0062
335.75,0.0826
336.0,0.0297
336.25,0.0129
336.5,0.0169
336.75,-0.0873
337.0,0.1107
337.25,-0.0006
337.5,0.0048
337.75,0.0026
338.0,-0.112
338.25,0.0612
338.5,-0.0194
338.75,-0.0063
339.0,0.0159
339.25,0.1343
339.5,0.0413
339.75,-0.0084
340.0,-0.0113
340.25,-0.0333
340.5,-0.0057
340.75,0.1616
341.0,-0.0114
341.25,0.0874
341.5,0.749
341.75,-0.0508
342.0,0.1398
342.25,-0.0047
342.5,0.0524
342.75,0.1457
343.0,0.0187
343.25,0.0891
343.5,0.1664
343.75,0.1307
344.0,0.0031
344.25,-0.0148
344.5,0.0054
344.75,-0.0018
345.0,0.0365
345.25,0.0692
345.5,0.1201
345.75,-0.0061
346.0,0.0001
346.25,0.0097
346.5,0.0662
346.75,-0.0151
347.0,0.0832
347.25,0.0476
347.5,0.1461
347.75,0.0193
348.0,0.0633
348.25,0.0006
348.5,0.0718
348.75,0.0023
349.0,-0.0293
349.25,-0.0069
349.5,0.0149
349.75,0.0082
350.0,0.0128
350.25,0.1487
350.5,0.0706
350.75,0.468
351.0,0.0836
351.25,-0.0019
351.5,-0.0064
351.75,-0.0206
352.0,0.0018
352.25,0.0029
352.5,0.0747
352.75,-0.0082
353.0,-0.0095
353.25,0.0136
353.5,0.1459
353.75,0.1402
354.0,-0.014
354.25,0.0027
354.5,0.123
354.75,0.0535
355.0,0.0002
355.25,0.0835
355.5,0.0149
355.75,-0.076
356.0,0.0264
356.25,0.1207
356.5,-0.0123
356.75,0.7911
357.0,-0.0031
357.25,-0.0454
357.5,0.0689
357.75,0.1423
358.0,0.0301
358.25,0.0005
358.5,-0.0067
358.75,-0.0254
359.0,0.0842
359.25,0.0175
359.5,0.0774
359.75,0.1028
360.0,-0.0029
360.25,0.1282
360.5,0.0547
360.75,0.0699
361.0,-0.009
361.25,-0.0096
361.5,0.0011
361.75,0.0093
362.0,0.1566
362.25,0.0154
362.5,0.0993
362.75,-0.005
363.0,0.1362
363.25,-0.0072
363.5,0.0021
363.75,0.0006
364.0,0.0026
364.25,-0.014
364.5,-0.0135
364.75,0.0993
365.0,0.09
365.25,0.0028
365.5,0.0093
365.75,0.0142
366.0,0.0168
366.25,0.0071
366.5,-0.0005
366.75,-0.0033
367.0,-0.0461
367.25,0.1013
367.5,0.0003
367.75,0.1029
368.0,-0.0089
368.25,0.1455
368.5,0.0088
368.75,-0.0011
369.0,0.0783
369.25,0.6025
369.5,0.0017
369.75,-0.0953
370.0,-0.0007
370.25,0.7378
370.5,0.1226
370.75,0.6729
371.0,0.0339
371.25,-0.0024
371.5,-0.0023
371.75,-0.0077
372.0,0.7452
372.25,0.0799
372.5,-0.008
372.75,0.7746
373.0,0.0034
373.25,-0.014
373.5,0.0908
373.75,0.0519
374.0,-0.1235
374.25,0.0889
374.5,-0.0104
374.75,-0.0118
375.0,0.0681
375.25,0.1448
375.5,0.5613
375.75,0.0027
376.0,0.0106
376.25,0.0512
376.5,-0.0034
376.75,0.0077
377.0,0.1055
377.25,0.1509
377.5,-0.0122
377.75,-0.0182
378.0,-0.0067
378.25,0.018
378.5,0.1639
378.75,-0.0084
379.0,0.0126
379.25,0.0576
379.5,0.0078
379.75,0.0202
380.0,0.0071
380.25,-0.002
380.5,0.0462
380.75,0.0316
381.0,-0.009
381.25,-0.007
381.5,-0.0328
381.75,0.0074
382.0,-0.0039
382.25,-0.0048
382.5,-0.0042
382.75,-0.018
383.0,-0.0075
383.25,0.7798
383.5,0.0687
383.75,-0.0213
384.0,0.0305
384.25,0.081
384.5,-0.0114
384.75,0.0419
385.0,0.0283
385.25,-0.0183
385.5,-0.0056
385.75,-0.0083
386.0,-0.0014
386.25,-0.0041
386.5,0.0756
386.75,0.0572
387.0,0.0164
387.25,0.0829
387.5,0.0696
387.75,0.0002
388.0,-0.0125
388.25,0.0036
388.5,-0.0447
388.75,-0.0084
389.0,0.0554
389.25,0.0114
389.5,0.0764
389.75,0.001
390.0,0.1306
390.25,0.007
390.5,0.1213
390.75,0.1501
391.0,0.0123
391.25,-0.0095
391.5,0.0012
391.75,0.1727
392.0,0.6891
392.25,0.0458
392.5,0.0181
392.75,-0.0067
393.0,-0.0074
393.25,0.0554
393.5,0.0098
393.75,0.072
394.0,-0.0239
394.25,0.0543
394.5,0.0598
394.75,0.0117
395.0,0.0195
395.25,0.0211
395.5,-0.0083
395.75,0.0156
396.0,0.1102
396.25,-0.0008
396.5,0.0073
396.75,0.0361
397.0,0.0124
397.25,0.0153
397.5,0.0097
397.75,-0.0851
398.0,-0.032
398.25,0.0714
398.5,0.008
398.75,0.0075
399.0,0.0018
399.25,0.1006
399.5,0.0006
399.75,0.0889
400.0,0.0078
400.25,0.0007
400.5,0.0065
400.75,0.005
401.0,0.066
401.25,0.0407
401.5,0.468
401.75,0.0343
402.0,0.1586
402.25,0.0046
402.5,0.7942
402.75,0.029
403.0,0.0004
403.25,-0.0086
403.5,-0.0109
403.75,-0.0122
404.0,0.006
404.25,0.0763
404.5,0.0087
404.75,-0.0147
405.0,-0.004
405.25,0.0391
405.5,-0.0582
405.75,-0.0071
406.0,0.0828
406.25,-0.0246
406.5,-0.0012
406.75,0.7612
407.0,-0.0096
407.25,-0.0202
407.5,-0.005
407.75,-0.0854
408.0,-0.001
408.25,0.1069
408.5,0.0014
408.75,0.0517
409.0,0.0624
409.25,-0.0028
409.5,0.0021
409.75,0.0901
410.0,0.7366
410.25,0.0001
410.5,0.0154
410.75,0.0105
411.0,0.058
411.25,0.1523
411.5,0.0099
411.75,0.0637
412.0,0.0007
412.25,0.4525
412.5,-0.0086
412.75,0.0173
413.0,0.1167
413.25,0.0737
413.5,-0.0167
413.75,-0.0217
414.0,0.0516
414.25,-0.0016
414.5,0.0129
414.75,-0.0034
415.0,0.0071
415.25,0.0068
415.5,0.0603
415.75,0.0821
416.0,0.0798
416.25,0.0945
416.5,0.0817
416.75,0.0893
417.0,-0.0753
417.25,0.1497
417.5,0.0226
417.75,0.2494
418.0,0.0029
418.25,0.053
418.5,0.0117
418.75,0.0101
419.0,0.0066
419.25,-0.1008
419.5,0.057
419.75,0.1218
420.0,-0.0238
420.25,-0.0007
420.5,-0.0198
420.75,-0.0024
421.0,0.0238
421.25,-0.0109
421.5,-0.0063
421.75,0.0067
422.0,0.0265
422.25,0.0308
422.5,0.0513
422.75,0.004
423.0,0.0056
423.25,0.0154
423.5,0.0824
423.75,0.0186
424.0,0.0175
424.25,-0.0061
424.5,0.0177
424.75,-0.0021
425.0,-0.0054
425.25,0.0408
425.5,0.0039
425.75,-0.0416
426.0,-0.0068
426.25,0.001
426.5,0.0916
426.75,-0.0085
427.0,-0.0083
427.25,-0.0461
427.5,0.1029
427.75,0.0003
428.0,-0.0112
428.25,0.1819
428.5,0.7099
428.75,0.0514
429.0,0.008
429.25,-0.0173
429.5,0.0838
429.75,0.0589
430.0,-0.0982
430.25,0.0081
430.5,-0.0948
430.75,0.005
431.0,-0.0148
431.25,0.0003
431.5,0.0275
431.75,0.0494
432.0,-0.025
432.25,0.0856
432.5,0.0455
432.75,-0.0081
433.0,0.0014
433.25,0.1227
433.5,-0.0056
433.75,0.0244
434.0,-0.016
434.25,0.0976
434.5,-0.0541
434.75,0.0516
435.0,0.0206
435.25,0.1546
435.5,-0.0048
435.75,0.0209
436.0,0.0067
436.25,-0.0055
436.5,0.0043
436.75,-0.0113
437.0,0.0842
437.25,0.0743
437.5,-0.0123
437.75,-0.0006
438.0,0.0272
438.25,0.0697
438.5,0.0741
438.75,0.0081
439.0,0.0026
439.25,0.5789
439.5,0.0031
439.75,0.1266
440.0,0.017
440.25,-0.0153
440.5,0.0092
440.75,0.0016
441.0,0.0911
441.25,0.0871
441.5,0.023
441.75,0.0499
442.0,0.1423
442.25,0.5498
442.5,0.0236
442.75,0.0071
443.0,-0.004
443.25,-0.0161
443.5,0.0317
443.75,-0.0186
444.0,-0.0025
444.25,0.0047
444.5,-0.0136
444.75,0.0784
445.0,0.0266
445.25,-0.0023
445.5,-0.0079
445.75,-0.0151
446.0,0.0878
446.25,0.002
446.5,0.0015
446.75,0.0545
447.0,0.0045
447.25,0.7774
447.5,0.0882
447.75,0.0033
448.0,0.049
448.25,-0.0112
448.5,0.0041
448.75,0.012
449.0,0.0466
449.25,0.0133
449.5,0.7537
449.75,-0.0083
450.0,-0.0209
450.25,0.0261
450.5,0.1356
450.75,-0.0195
451.0,0.1159
451.25,0.0928
451.5,0.0565
451.75,0.0002
452.0,0.1473
452.25,0.0055
452.5,0.0151
452.75,0.0019
453.0,-0.0077
453.25,-0.0019
453.5,0.0012
453.75,0.0136
454.0,0.1257
454.25,0.0567
454.5,0.0216
454.75,0.0076
455.0,0.003
455.25,-0.0224
455.5,0.0221
455.75,0.0595
456.0,0.1305
456.25,-0.0147
456.5,0.0732
456.75,0.0214
457.0,0.1053
457.25,-0.0179
457.5,-0.0048
457.75,-0.0001
458.0,-0.0038
458.25,0.125
458.5,0.0053
458.75,0.022
459.0,-0.0012
459.25,0.0686
459.5,0.0986
459.75,0.0491
460.0,-0.0876
460.25,-0.0032
460.5,0.0267
460.75,0.0026
461.0,0.0394
461.25,-0.0004
461.5,0.7034
461.75,-0.0043
462.0,0.0079
462.25,0.0056
462.5,-0.0114
462.75,0.1361
463.0,0.0596
463.25,-0.0002
463.5,-0.0085
463.75,0.0769
464.0,-0.0038
464.25,0.0057
464.5,0.0486
464.75,-0.0145
465.0,0.0001
465.25,0.1487
465.5,0.0471
465.75,-0.0777
466.0,0.038
466.25,0.0134
466.5,0.004
466.75,0.0031
467.0,0.4989
467.25,-0.0101
467.5,-0.0131
467.75,0.008
468.0,0.0027
468.25,-0.0019
468.5,-0.0074
468.75,0.0891
469.0,0.0189
469.25,-0.0211
469.5,-0.0042
469.75,0.0042
470.0,0.0022
470.25,0.0051
470.5,0.0132
470.75,-0.0135
471.0,-0.0911
471.25,0.0034
471.5,-0.0027
471.75,0.1455
472.0,0.1243
472.25,0.0123
472.5,0.0176
472.75,0.133
473.0,0.0025
473.25,-0.0098
473.5,0.0445
473.75,0.308
474.0,0.0027
474.25,0.0628
474.5,-0.0012
474.75,0.1099
475.0,-0.0083
475.25,0.1045
475.5,-0.001
475.75,0.1361
476.0,0.1374
476.25,-0.0129
476.5,-0.0073
476.75,0.0379
477.0,-0.0138
477.25,-0.0187
477.5,-0.0051
477.75,0.0133
478.0,0.005
478.25,-0.0017
478.5,-0.0088
478.75,0.0205
479.0,0.0487
479.25,0.0609
479.5,0.0062
479.75,0.0022
480.0,0.0394
480.25,0.152
480.5,0.1329
480.75,-0.0084
481.0,-0.1134
481.25,0.6379
481.5,-0.0075
481.75,-0.0417
482.0,-0.0157
482.25,-0.0148
482.5,-0.0025
482.75,0.1502
483.0,-0.0099
483.25,0.0112
483.5,-0.003
483.75,-0.0146
484.0,0.0698
484.25,0.0031
484.5,-0.001
484.75,0.0321
485.0,-0.0005
485.25,0.0157
485.5,0.0022
485.75,0.1189
486.0,-0.0012
486.25,0.0059
486.5,0.0347
486.75,0.003
487.0,-0.011
487.25,-0.0051
487.5,0.014
487.75,0.0109
488.0,-0.0035
488.25,0.0056
488.5,0.0331
488.75,-0.0084
489.0,0.0318
489.25,0.0411
489.5,0.0041
489.75,-0.006
490.0,0.0707
490.25,0.0139
490.5,-0.0017
490.75,0.0788
491.0,0.0026
491.25,0.1447
491.5,-0.0018
491.75,0.0024
492.0,0.0492
492.25,-0.0137
492.5,0.0159
492.75,-0.0113
493.0,0.0433
493.25,0.0158
493.5,0.0002
493.75,0.0201
494.0,0.0894
494.25,-0.01
494.5,-0.0068
494.75,0.0066
495.0,-0.0813
495.25,-0.0058
495.5,0.0255
495.75,-0.0014
496.0,0.0171
496.25,0.0771
496.5,-0.0735
496.75,-0.0252
497.0,0.1687
497.25,-0.0045
497.5,-0.0079
497.75,0.1388
498.0,0.1139
498.25,0.032
498.5,-0.0019
498.75,0.6583
499.0,0.0037
499.25,-0.0413
499.5,-0.0095
499.75,0.003
500.0,0.017
500.25,-0.0054
500.5,0.0125
500.75,0.16
501.0,0.0695
501.25,0.0092
501.5,-0.002
501.75,-0.0217
502.0,0.0972
502.25,0.0016
502.5,-0.0104
502.75,-0.0263
503.0,-0.001
503.25,-0.0198
503.5,0.0057
503.75,0.1381
504.0,0.0225
504.25,0.0091
504.5,-0.0001
504.75,-0.0451
505.0,0.0011
505.25,0.1269
505.5,0.0065
505.75,0.0168
506.0,0.0081
506.25,-0.0077
506.5,-0.1086
506.75,0.0021
507.0,-0.0255
507.25,-0.0103
507.5,-0.0045
507.75,-0.0005
508.0,0.1177
508.25,0.067
508.5,-0.0354
508.75,-0.003
509.0,0.0018
509.25,0.0046
509.5,-0.0116
509.75,-0.0081
510.0,-0.0005
510.25,0.6064
510.5,-0.0008
510.75,0.7217
511.0,0.0227
511.25,-0.0048
511.5,-0.0026
511.75,0.0042
512.0,0.0027
512.25,0.1412
512.5,0.1224
512.75,0.0031
513.0,-0.0108
513.25,0.1717
513.5,0.1339
513.75,0.0114
514.0,-0.0089
514.25,-0.0115
514.5,0.1111
514.75,-0.012
515.0,0.0176
515.25,0.1573
515.5,0.0053
515.75,0.1448
516.0,0.0798
516.25,-0.0066
516.5,0.0709
516.75,-0.0024
517.0,-0.007
517.25,-0.0137
517.5,0.0053
517.75,-0.0017
518.0,0.0686
518.25,0.0935
518.5,0.0043
518.75,0.0042
519.0,0.0033
519.25,0.0555
519.5,0.1259
519.75,0.0096
520.0,-0.0061
520.25,-0.01
520.5,0.0091
520.75,0.0641
521.0,0.0076
521.25,0.0469
521.5,0.0014
521.75,0.0367
522.0,0.0593
522.25,-0.0199
522.5,-0.0037
522.75,0.0825
523.0,0.0018
523.25,-0.0115
523.5,-0.0037
523.75,0.0088
524.0,-0.0065
524.25,-0.0114
524.5,0.0387
524.75,-0.0094
525.0,-0.0138
525.25,0.0733
525.5,-0.018
525.75,-0.0042
526.0,-0.0096
526.25,-0.0331
526.5,0.0082
526.75,0.1259
527.0,0.0058
527.25,0.121
527.5,-0.0943
527.75,-0.0171
528.0,0.0046
528.25,0.0036
528.5,0.0745
528.75,0.0616
529.0,0.0171
529.25,0.1232
529.5,0.0345
529.75,-0.0002
530.0,0.1499
530.25,0.0152
530.5,0.144
530.75,0.0516
531.0,-0.0044
531.25,0.0008
531.5,0.0248
531.75,-0.0184
532.0,-0.0033
532.25,0.036
532.5,-0.0071
532.75,0.0432
533.0,0.0058
533.25,0.0139
533.5,-0.011
533.75,0.0116
534.0,-0.0101
534.25,-0.0244
534.5,-0.0141
534.75,-0.0102
535.0,0.0159
535.25,-0.0682
535.5,0.0047
535.75,0.0055
536.0,0.0801
536.25,-0.0141
536.5,0.1502
536.75,0.0005
537.0,-0.0117
537.25,-0.0209
537.5,0.0011
537.75,-0.0166
538.0,0.1578
538.25,0.0172
538.5,0.0182
538.75,0.0909
539.0,0.0256
539.25,-0.0074
539.5,-0.009
539.75,-0.0161
540.0,-0.0701
540.25,0.002
540.5,-0.0039
540.75,0.0294
541.0,0.1268
541.25,0.0515
541.5,0.0049
541.75,-0.0091
542.0,-0.1311
542.25,0.0003
542.5,-0.004
542.75,0.6652
543.0,0.0306
543.25,0.0935
543.5,-0.0112
543.75,-0.0189
544.0,-0.01
544.25,0.1485
544.5,0.0181
544.75,0.0917
545.0,0.0327
545.25,0.0242
545.5,-0.0059
545.75,0.0019
546.0,0.1462
546.25,0.0363
546.5,-0.0077
546.75,0.0993
547.0,0.0303
547.25,0.0069
547.5,-0.0196
547.75,0.0828
548.0,-0.013
548.25,-0.0062
548.5,0.1592
548.75,0.0034
549.0,-0.0451
549.25,0.0863
549.5,-0.0094
549.75,-0.0006
550.0,0.0034
550.25,-0.0141
550.5,0.1006
550.75,0.0051
551.0,-0.0118
551.25,0.0033
551.5,0.0381
551.75,0.0122
552.0,0.1295
552.25,0.0888
552.5,0.0134
552.75,-0.0275
553.0,0.5918
553.25,0.053
553.5,-0.0213
553.75,0.7777
554.0,0.1434
554.25,0.0044
554.5,0.1295
554.75,-0.0033
555.0,-0.0143
555.25,0.0186
555.5,0.0204
555.75,0.0184
556.0,0.0231
556.25,-0.0161
556.5,0.5995
556.75,0.13
557.0,0.1434
557.25,0.0014
557.5,0.0215
557.75,0.0312
558.0,0.0314
558.25,0.0002
558.5,0.0114
558.75,-0.0042
559.0,0.4564
559.25,0.0004
559.5,-0.0045
559.75,0.0114
560.0,0.0338
560.25,0.0696
560.5,-0.0097
560.75,0.132
561.0,0.0587
561.25,0.0575
561.5,-0.0091
561.75,0.1061
562.0,0.0005
562.25,-0.05
562.5,0.1168
562.75,-0.0217
563.0,0.0179
563.25,-0.0185
563.5,0.3235
563.75,-0.0051
564.0,0.0607
564.25,0.0302
564.5,0.0072
564.75,0.0006
565.0,0.0093
565.25,-0.1145
565.5,-0.0497
565.75,0.013
566.0,0.0068
566.25,0.0109
566.5,0.1466
566.75,0.0063
567.0,-0.0098
567.25,0.0066
567.5,0.5355
567.75,0.0869
568.0,-0.0072
568.25,0.0177
568.5,0.0089
568.75,-0.0166
569.0,-0.0047
569.25,0.0023
569.5,0.0719
569.75,0.1258
570.0,0.0711
570.25,0.005
570.5,0.1325
570.75,-0.0315
571.0,0.1429
571.25,0.0033
571.5,0.1561
571.75,0.0863
572.0,0.0139
572.25,0.7917
572.5,-0.0066
572.75,-0.0086
573.0,0.0177
573.25,0.0029
573.5,0.003
573.75,-0.0437
574.0,0.0646
574.25,0.0093
574.5,-0.0053
574.75,0.0065
575.0,-0.0096
575.25,0.0114
575.5,0.1455
575.75,0.0087
576.0,0.1308
576.25,-0.0202
576.5,0.0637
576.75,0.022
577.0,0.1467
577.25,0.0638
577.5,0.7875
577.75,0.0773
578.0,0.1356
578.25,0.0801
578.5,0.1143
578.75,0.0057
579.0,0.1601
579.25,-0.0111
579.5,-0.0106
579.75,0.0023
580.0,0.0121
580.25,-0.0067
580.5,0.0133
580.75,0.029
581.0,0.0274
581.25,0.0777
581.5,-0.0048
581.75,-0.0009
582.0,0.1277
582.25,0.0603
582.5,0.0078
582.75,-0.0013
583.0,-0.004
583.25,0.006
583.5,0.0893
583.75,0.0454
584.0,0.0031
584.25,0.002
584.5,-0.0012
584.75,-0.0099
585.0,0.0587
585.25,-0.0221
585.5,0.0015
585.75,0.0599
586.0,0.1369
586.25,-0.0021
586.5,-0.007
586.75,0.0013
587.0,0.0147
587.25,0.0118
587.5,0.011
587.75,0.0345
588.0,0.0146
588.25,0.4205
588.5,0.0033
588.75,-0.0014
589.0,0.0962
589.25,0.0209
589.5,-0.0457
589.75,0.0893
590.0,0.0731
590.25,-0.006
590.5,0.0955
590.75,0.0039
591.0,-0.0078
591.25,0.0003
591.5,0.0109
591.75,0.0198
592.0,-0.0008
592.25,0.0589
592.5,-0.1081
592.75,0.2282
593.0,-0.016
593.25,0.1187
593.5,0.1351
593.75,0.1408
594.0,0.0324
594.25,-0.0068
594.5,0.0181
594.75,0.5351
595.0,0.1584
595.25,0.0077
595.5,0.0704
595.75,-0.0062
596.0,0.0021
596.25,-0.0169
596.5,0.0116
596.75,-0.0109
597.0,0.0255
597.25,0.0198
597.5,0.0468
597.75,0.0012
598.0,0.7751
598.25,-0.0163
598.5,0.0982
598.75,0.0798
599.0,-0.0103
599.25,-0.0147
599.5,0.1325
599.75,0.0138
600.0,0.3505
600.25,0.1136
600.5,0.0029
600.75,0.0016
601.0,-0.0075
601.25,0.0187
601.5,0.0005
601.75,0.0001
602.0,0.0406
602.25,0.1065
602.5,0.078
602.75,0.0529
603.0,0.1215
603.25,-0.0
603.5,0.077
603.75,-0.0276
604.0,0.0105
604.25,-0.0027
604.5,0.0018
604.75,-0.0081
605.0,-0.0913
605.25,0.1501
605.5,-0.0979
605.75,-0.0024
606.0,0.1081
606.25,0.0096
606.5,0.0347
606.75,0.1586
607.0,-0.0059
607.25,0.0091
607.5,-0.0228
607.75,-0.0038
608.0,-0.0188
608.25,0.001
608.5,0.0364
608.75,-0.0006
609.0,-0.0138
609.25,0.0124
609.5,0.7973
609.75,-0.0117
610.0,-0.0044
610.25,-0.0039
610.5,0.1216
610.75,0.0561
611.0,-0.0076
611.25,0.0067
611.5,0.0108
611.75,-0.0141
612.0,0.0043
612.25,-0.0044
612.5,-0.0057
612.75,0.0955
613.0,0.0206
613.25,0.0018
613.5,-0.0003
613.75,0.3527
614.0,0.0035
614.25,0.0389
614.5,-0.0101
614.75,0.0048
615.0,-0.0161
615.25,0.0811
615.5,0.0088
615.75,0.071
616.0,-0.0078
616.25,-0.0012
616.5,-0.0086
616.75,0.0034
617.0,-0.0107
617.25,0.0021
617.5,0.1514
617.75,0.0863
618.0,0.006
618.25,0.0473
618.5,0.057
618.75,-0.0116
619.0,0.3508
619.25,0.1666
619.5,0.0307
619.75,-0.0192
620.0,-0.0065
620.25,-0.0026
620.5,-0.0203
620.75,0.0477
621.0,0.011
621.25,0.0434
621.5,-0.0112
621.75,0.0056
622.0,0.0082
622.25,0.0875
622.5,0.614
622.75,0.0041
623.0,0.1409
623.25,0.0679
623.5,-0.0092
623.75,0.0349
624.0,0.0034
624.25,0.0007
624.5,-0.0032
624.75,0.0063
625.0,-0.0082
625.25,0.1332
625.5,0.0277
625.75,-0.0104
626.0,-0.0085
626.25,-0.001
626.5,0.0654
626.75,0.1286
627.0,0.0668
627.25,0.0525
627.5,0.0072
627.75,0.0271
628.0,0.1499
628.25,0.1501
628.5,-0.002
628.75,0.0428
629.0,-0.0135
629.25,0.0127
629.5,-0.0057
629.75,0.8239
630.0,0.0061
630.25,0.0269
630.5,0.01
630.75,-0.0278
631.0,0.0174
631.25,0.0915
631.5,0.0231
631.75,-0.0263
632.0,0.5184
632.25,0.1055
632.5,-0.0046
632.75,-0.0093
633.0,0.0074
633.25,-0.0029
633.5,-0.0109
633.75,0.0123
634.0,0.0038
634.25,0.0805
634.5,0.0044
634.75,0.5056
635.0,-0.0034
635.25,0.0132
635.5,0.0053
635.75,0.0137
636.0,0.0016
636.25,0.0068
636.5,0.0368
636.75,-0.0133
637.0,-0.007
637.25,0.0043
637.5,0.0065
637.75,-0.0121
638.0,0.0017
638.25,0.0276
638.5,0.1686
638.75,0.0765
639.0,0.0198
639.25,0.0731
639.5,-0.0551
639.75,0.788
640.0,-0.0036
640.25,-0.0161
640.5,0.0005
640.75,-0.0086
641.0,0.1319
641.25,0.0129
641.5,-0.0013
641.75,-0.0052
642.0,0.1347
642.25,0.6673
642.5,0.5021
642.75,0.1089
643.0,0.01
643.25,0.0569
643.5,-0.0071
643.75,0.1248
644.0,0.0233
644.25,-0.0113
644.5,0.0743
644.75,0.133
645.0,0.1324
645.25,0.7348
645.5,-0.0059
645.75,-0.0059
646.0,0.0309
646.25,0.1265
646.5,0.001
646.75,0.0117
647.0,-0.0117
647.25,0.0248
647.5,-0.0092
647.75,0.0327
648.0,0.0484
648.25,0.0102
648.5,0.1671
648.75,0.1741
649.0,0.041
649.25,0.071
649.5,0.1426
649.75,0.028
650.0,0.1518
650.25,-0.016
650.5,0.0164
650.75,0.0078
651.0,0.067
651.25,0.0244
651.5,0.0787
651.75,0.0034
652.0,0.0798
652.25,0.4356
652.5,0.0641
652.75,0.1112
653.0,0.0787
653.25,0.0114
653.5,0.0659
653.75,0.1128
654.0,-0.0201
654.25,0.002
654.5,0.0047
654.75,0.148
655.0,-0.0023
655.25,0.016
655.5,-0.142
655.75,0.0059
656.0,-0.0377
656.25,0.1272
656.5,0.5003
656.75,0.0779
657.0,-0.0298
657.25,-0.0021
657.5,-0.1178
657.75,0.0139
658.0,-0.0061
658.25,0.0772
658.5,-0.0431
658.75,-0.0018
659.0,0.0002
659.25,-0.0013
659.5,0.0155
659.75,0.0734
