time,ecg
0.0000,0.000299
0.0040,0.059753
0.0080,0.028534
0.0120,0.063074
0.0160,0.085361
0.0200,0.067986
0.0240,0.108769
0.0280,0.139851
0.0320,0.107884
0.0360,0.151134
0.0400,0.165784
0.0440,0.168274
0.0480,0.202729
0.0520,0.212914
0.0560,0.217690
0.0600,0.182317
0.0640,0.262346
0.0680,0.264852
0.0720,0.263375
0.0760,0.296304
0.0800,0.289733
0.0840,0.313299
0.0880,0.325241
0.0920,0.310220
0.0960,0.335106
0.1000,0.362475
0.1040,0.411263
0.1080,0.382929
0.1120,0.391371
0.1160,0.380901
0.1200,0.398523
0.1240,0.366359
0.1280,0.471768
0.1320,0.454358
0.1360,0.428669
0.1400,0.468277
0.1440,0.449623
0.1480,0.473820
0.1520,0.461205
0.1560,0.484458
0.1600,0.442159
0.1640,0.510085
0.1680,0.472823
0.1720,0.503237
0.1760,0.468417
0.1800,0.528075
0.1840,0.480430
0.1880,0.533589
0.1920,0.545886
0.1960,0.494789
0.2000,0.527233
0.2040,0.496746
0.2080,0.474514
0.2120,0.541255
0.2160,0.509832
0.2200,0.481209
0.2240,0.492267
0.2280,0.487090
0.2320,0.549173
0.2360,0.506253
0.2400,0.516609
0.2440,0.515938
0.2480,0.509805
0.2520,0.473416
0.2560,0.500780
0.2600,0.432067
0.2640,0.468978
0.2680,0.432329
0.2720,0.450809
0.2760,0.432616
0.2800,0.412665
0.2840,0.413912
0.2880,0.410790
0.2920,0.415324
0.2960,0.401423
0.3000,0.394495
0.3040,0.360684
0.3080,0.375981
0.3120,0.395574
0.3160,0.332348
0.3200,0.315797
0.3240,0.334625
0.3280,0.342177
0.3320,0.297698
0.3360,0.316516
0.3400,0.280185
0.3440,0.245037
0.3480,0.264785
0.3520,0.242741
0.3560,0.204454
0.3600,0.192254
0.3640,0.185742
0.3680,0.148864
0.3720,0.132698
0.3760,0.143557
0.3800,0.134177
0.3840,0.139209
0.3880,0.114657
0.3920,0.087438
0.3960,0.089890
0.4000,0.017667
0.4040,0.096380
0.4080,0.048403
0.4120,0.016436
0.4160,-0.001627
0.4200,-0.038906
0.4240,-0.022912
0.4280,-0.041347
0.4320,-0.053136
0.4360,-0.061701
0.4400,-0.074892
0.4440,-0.099788
0.4480,-0.112077
0.4520,-0.129922
0.4560,-0.163254
0.4600,-0.171448
0.4640,-0.190113
0.4680,-0.183205
0.4720,-0.192282
0.4760,-0.241430
0.4800,-0.266117
0.4840,-0.228365
0.4880,-0.249403
0.4920,-0.297914
0.4960,-0.304824
0.5000,-0.306164
0.5040,-0.335609
0.5080,-0.306857
0.5120,-0.311663
0.5160,-0.356206
0.5200,-0.346612
0.5240,-0.335253
0.5280,-0.362495
0.5320,-0.381023
0.5360,-0.426861
0.5400,-0.407373
0.5440,-0.413039
0.5480,-0.415974
0.5520,-0.430144
0.5560,-0.460810
0.5600,-0.473379
0.5640,-0.485185
0.5680,-0.422705
0.5720,-0.505586
0.5760,-0.500213
0.5800,-0.508493
0.5840,-0.445129
0.5880,-0.488288
0.5920,-0.512409
0.5960,-0.498573
0.6000,0.509648
0.6040,0.535772
0.6080,-0.505526
0.6120,-0.511859
0.6160,-0.541703
0.6200,-0.479186
0.6240,-0.517275
0.6280,-0.501586
0.6320,-0.491885
0.6360,-0.474786
0.6400,-0.507774
0.6440,-0.502541
0.6480,-0.536030
0.6520,-0.486016
0.6560,-0.512205
0.6600,-0.510081
0.6640,-0.464383
0.6680,-0.535577
0.6720,-0.502540
0.6760,-0.493762
0.6800,-0.476112
0.6840,-0.469781
0.6880,-0.467248
0.6920,-0.431708
0.6960,-0.428607
0.7000,-0.408486
0.7040,-0.437267
0.7080,-0.395982
0.7120,-0.375005
0.7160,-0.429363
0.7200,-0.388720
0.7240,-0.369068
0.7280,-0.333415
0.7320,-0.354441
0.7360,-0.375434
0.7400,-0.332613
0.7440,-0.314938
0.7480,-0.332683
0.7520,-0.328153
0.7560,-0.290792
0.7600,-0.259969
0.7640,-0.258750
0.7680,-0.209570
0.7720,-0.242350
0.7760,-0.224713
0.7800,-0.191571
0.7840,-0.195051
0.7880,-0.179510
0.7920,-0.150181
0.7960,-0.183420
0.8000,-0.160592
0.8040,-0.122191
0.8080,-0.100968
0.8120,-0.124343
0.8160,-0.070677
0.8200,-0.082105
0.8240,-0.040168
0.8280,-0.013090
0.8320,-0.004128
0.8360,0.014013
0.8400,0.029084
0.8440,0.030044
0.8480,0.042674
0.8520,0.067776
0.8560,0.115653
0.8600,0.116932
0.8640,0.113660
0.8680,0.159642
0.8720,0.157936
0.8760,0.166620
0.8800,0.175483
0.8840,0.157347
0.8880,0.228031
0.8920,0.211343
0.8960,0.276554
0.9000,0.254389
0.9040,0.233317
0.9080,0.252958
0.9120,0.329166
0.9160,0.287833
0.9200,0.287208
0.9240,0.320455
0.9280,0.347611
0.9320,0.327272
0.9360,0.326196
0.9400,0.365070
0.9440,0.382376
0.9480,0.387589
0.9520,0.403493
0.9560,0.422975
0.9600,0.407159
0.9640,0.392405
0.9680,0.445128
0.9720,0.458288
0.9760,0.440878
0.9800,0.467034
0.9840,0.458532
0.9880,0.449045
0.9920,0.486625
0.9960,0.438949
1.0000,0.473897
1.0040,0.453538
1.0080,0.530415
1.0120,0.495754
1.0160,0.490997
1.0200,0.461985
1.0240,0.473361
1.0280,0.529873
1.0320,0.495338
1.0360,0.497747
1.0400,0.510468
1.0440,0.547407
1.0480,0.485696
1.0520,0.482499
1.0560,0.520415
1.0600,0.550934
1.0640,0.504509
1.0680,0.483375
1.0720,0.468370
1.0760,0.432859
1.0800,0.506358
1.0840,0.483899
1.0880,0.516981
1.0920,0.460125
1.0960,0.483556
1.1000,0.465709
1.1040,0.484081
1.1080,0.449921
1.1120,0.473017
1.1160,0.418474
1.1200,0.433359
1.1240,0.394959
1.1280,0.380508
1.1320,0.375097
1.1360,0.402252
1.1400,0.394761
1.1440,0.328669
1.1480,0.335825
1.1520,0.355437
1.1560,0.309253
1.1600,0.338675
1.1640,0.279344
1.1680,0.326910
1.1720,0.307729
1.1760,0.286090
1.1800,0.269113
1.1840,0.254981
1.1880,0.250629
1.1920,0.247159
1.1960,0.219603
1.2000,0.214931
1.2040,0.188753
1.2080,0.154844
1.2120,0.139548
1.2160,0.158245
1.2200,0.132062
1.2240,0.077759
1.2280,0.077430
1.2320,0.069803
1.2360,0.083969
1.2400,0.065351
1.2440,-0.005080
1.2480,0.025771
1.2520,-0.017605
1.2560,-0.005332
1.2600,-0.052295
1.2640,-0.051342
1.2680,-0.050503
1.2720,-0.080179
1.2760,-0.092989
1.2800,-0.152852
1.2840,-0.111976
1.2880,-0.139162
1.2920,-0.142328
1.2960,-0.145775
1.3000,-0.209101
1.3040,-0.199228
1.3080,-0.200283
1.3120,-0.236065
1.3160,-0.234254
1.3200,-0.236323
1.3240,-0.289396
1.3280,-0.273426
1.3320,-0.312812
1.3360,-0.288856
1.3400,-0.332190
1.3440,-0.306583
1.3480,-0.324162
1.3520,-0.338038
1.3560,-0.337351
1.3600,-0.369530
1.3640,-0.404860
1.3680,-0.371095
1.3720,-0.411386
1.3760,-0.382575
1.3800,-0.413951
1.3840,-0.425444
1.3880,-0.432985
1.3920,-0.427541
1.3960,-0.472576
1.4000,0.559600
1.4040,0.529514
1.4080,-0.469856
1.4120,-0.475610
1.4160,-0.435058
1.4200,-0.477929
1.4240,-0.502448
1.4280,-0.503383
1.4320,-0.496496
1.4360,-0.504204
1.4400,-0.512992
1.4440,-0.518655
1.4480,-0.517262
1.4520,-0.510623
1.4560,-0.520541
1.4600,-0.549752
1.4640,-0.505234
1.4680,-0.560059
1.4720,-0.503397
1.4760,-0.485855
1.4800,-0.476141
1.4840,-0.486182
1.4880,-0.494062
1.4920,-0.467250
1.4960,-0.497232
1.5000,-0.526043
1.5040,-0.494721
1.5080,-0.489964
1.5120,-0.452562
1.5160,-0.480905
1.5200,-0.445262
1.5240,-0.462198
1.5280,-0.474687
1.5320,-0.429687
1.5360,-0.422781
1.5400,-0.411177
1.5440,-0.372275
1.5480,-0.411658
1.5520,-0.413394
1.5560,-0.356278
1.5600,-0.351655
1.5640,-0.352361
1.5680,-0.341169
1.5720,-0.344032
1.5760,-0.301978
1.5800,-0.308150
1.5840,-0.317793
1.5880,-0.286634
1.5920,-0.255120
1.5960,-0.245331
1.6000,-0.248298
1.6040,-0.223326
1.6080,-0.212693
1.6120,-0.216209
1.6160,-0.208337
1.6200,-0.136977
1.6240,-0.176015
1.6280,-0.151843
1.6320,-0.134301
1.6360,-0.128229
1.6400,-0.113530
1.6440,-0.090714
1.6480,-0.111257
1.6520,-0.080892
1.6560,-0.053817
1.6600,-0.017876
1.6640,-0.017749
1.6680,0.002551
1.6720,0.042783
1.6760,0.035985
1.6800,0.060354
1.6840,0.066384
1.6880,0.064947
1.6920,0.112929
1.6960,0.078036
1.7000,0.117213
1.7040,0.126337
1.7080,0.160431
1.7120,0.192596
1.7160,0.201090
1.7200,0.191593
1.7240,0.188890
1.7280,0.220271
1.7320,0.240921
1.7360,0.248964
1.7400,0.272449
1.7440,0.242955
1.7480,0.269539
1.7520,0.281362
1.7560,0.310177
1.7600,0.356345
1.7640,0.361962
1.7680,0.333177
1.7720,0.345891
1.7760,0.380679
1.7800,0.368113
1.7840,0.445181
1.7880,0.363066
1.7920,0.407815
1.7960,0.427895
1.8000,0.448155
1.8040,0.437281
1.8080,0.459404
1.8120,0.451343
1.8160,0.431712
1.8200,0.495566
1.8240,0.461748
1.8280,0.505529
1.8320,0.491332
1.8360,0.453808
1.8400,0.507098
1.8440,0.520998
1.8480,0.509679
1.8520,0.499773
1.8560,0.530530
1.8600,0.469678
1.8640,0.468858
1.8680,0.502981
1.8720,0.485725
1.8760,0.488776
1.8800,0.502161
1.8840,0.516556
1.8880,0.475054
1.8920,0.493546
1.8960,0.505986
1.9000,0.504214
1.9040,0.453262
1.9080,0.481089
1.9120,0.502156
1.9160,0.465205
1.9200,0.460341
1.9240,0.474694
1.9280,0.442226
1.9320,0.426593
1.9360,0.444796
1.9400,0.436792
1.9440,0.441234
1.9480,0.418226
1.9520,0.426887
1.9560,0.435579
1.9600,0.404496
1.9640,0.423206
1.9680,0.417781
1.9720,0.400044
1.9760,0.380507
1.9800,0.344703
1.9840,0.348816
1.9880,0.338322
1.9920,0.308947
1.9960,0.283695
2.0000,0.292793
2.0040,0.319022
2.0080,0.269842
2.0120,0.238527
2.0160,0.250247
2.0200,0.193657
2.0240,0.262043
2.0280,0.226833
2.0320,0.189124
2.0360,0.190042
2.0400,0.151437
2.0440,0.156216
2.0480,0.121607
2.0520,0.106769
2.0560,0.127125
2.0600,0.090133
2.0640,0.064394
2.0680,0.052578
2.0720,0.048892
2.0760,0.033332
2.0800,-0.028495
2.0840,-0.048563
2.0880,-0.026969
2.0920,-0.044689
2.0960,-0.052224
2.1000,-0.037694
2.1040,-0.076775
2.1080,-0.108194
2.1120,-0.121198
2.1160,-0.167994
2.1200,-0.112841
2.1240,-0.139124
2.1280,-0.158725
2.1320,-0.211633
2.1360,-0.204389
2.1400,-0.249094
2.1440,-0.219136
2.1480,-0.216029
2.1520,-0.244675
2.1560,-0.244434
2.1600,-0.281439
2.1640,-0.284871
2.1680,-0.283522
2.1720,-0.316561
2.1760,-0.326273
2.1800,-0.357316
2.1840,-0.363822
2.1880,-0.406953
2.1920,-0.338233
2.1960,0.613226
2.2000,0.632919
2.2040,-0.392295
2.2080,-0.409769
2.2120,-0.402103
2.2160,-0.417365
2.2200,-0.448214
2.2240,-0.442487
2.2280,-0.453112
2.2320,-0.434636
2.2360,-0.455104
2.2400,-0.465592
2.2440,-0.520549
2.2480,-0.503115
2.2520,-0.473512
2.2560,-0.498371
2.2600,-0.480247
2.2640,-0.485183
2.2680,-0.488829
2.2720,-0.492744
2.2760,-0.506162
2.2800,-0.502153
2.2840,-0.512978
2.2880,-0.524304
2.2920,-0.532693
2.2960,-0.499739
2.3000,-0.510214
2.3040,-0.504939
2.3080,-0.528752
2.3120,-0.494357
2.3160,-0.501518
2.3200,-0.487657
2.3240,-0.522183
2.3280,-0.461663
2.3320,-0.464680
2.3360,-0.479924
2.3400,-0.405712
2.3440,-0.480743
2.3480,-0.479459
2.3520,-0.473000
2.3560,-0.430869
2.3600,-0.405389
2.3640,-0.454383
2.3680,-0.397758
2.3720,-0.446888
2.3760,-0.433979
2.3800,-0.360590
2.3840,-0.392972
2.3880,-0.386953
2.3920,-0.392746
2.3960,-0.343678
2.4000,-0.337754
2.4040,-0.307339
2.4080,-0.254868
2.4120,-0.307981
2.4160,-0.317008
2.4200,-0.267612
2.4240,-0.280451
2.4280,-0.240965
2.4320,-0.228305
2.4360,-0.248144
2.4400,-0.190436
2.4440,-0.206485
2.4480,-0.195134
2.4520,-0.161541
2.4560,-0.205658
2.4600,-0.137036
2.4640,-0.109143
2.4680,-0.102776
2.4720,-0.090132
2.4760,-0.096535
2.4800,-0.060895
2.4840,-0.063425
2.4880,-0.001813
2.4920,-0.020678
2.4960,-0.003799
2.5000,0.032232
2.5040,-0.005627
2.5080,0.024685
2.5120,0.077259
2.5160,0.068830
2.5200,0.098716
2.5240,0.086861
2.5280,0.136759
2.5320,0.144571
2.5360,0.147281
2.5400,0.128875
2.5440,0.180397
2.5480,0.173298
2.5520,0.167702
2.5560,0.220486
2.5600,0.221461
2.5640,0.260394
2.5680,0.263658
2.5720,0.278768
2.5760,0.255207
2.5800,0.310068
2.5840,0.322542
2.5880,0.294938
2.5920,0.332835
2.5960,0.349247
2.6000,0.348876
2.6040,0.367486
2.6080,0.403439
2.6120,0.375309
2.6160,0.353878
2.6200,0.419602
2.6240,0.424418
2.6280,0.459687
2.6320,0.419510
2.6360,0.402982
2.6400,0.438081
2.6440,0.451388
2.6480,0.453662
2.6520,0.469499
2.6560,0.465680
2.6600,0.462037
2.6640,0.465034
2.6680,0.502429
2.6720,0.501497
2.6760,0.500863
2.6800,0.474853
2.6840,0.479520
2.6880,0.526611
2.6920,0.475768
2.6960,0.483294
2.7000,0.548139
2.7040,0.517732
2.7080,0.525349
2.7120,0.507473
2.7160,0.510469
2.7200,0.520473
2.7240,0.509742
2.7280,0.498873
2.7320,0.486576
2.7360,0.494946
2.7400,0.507490
2.7440,0.484969
2.7480,0.472226
2.7520,0.457851
2.7560,0.498901
2.7600,0.454830
2.7640,0.465044
2.7680,0.449938
2.7720,0.463814
2.7760,0.435420
2.7800,0.431830
2.7840,0.436329
2.7880,0.400154
2.7920,0.396977
2.7960,0.400564
2.8000,0.385298
2.8040,0.385317
2.8080,0.363808
2.8120,0.396524
2.8160,0.362472
2.8200,0.363552
2.8240,0.307892
2.8280,0.316107
2.8320,0.293506
2.8360,0.264273
2.8400,0.289144
2.8440,0.268448
2.8480,0.259498
2.8520,0.201597
2.8560,0.183595
2.8600,0.224220
2.8640,0.233401
2.8680,0.147787
2.8720,0.162242
2.8760,0.128274
2.8800,0.141878
2.8840,0.135174
2.8880,0.140480
2.8920,0.096493
2.8960,0.065362
2.9000,0.097462
2.9040,0.047845
2.9080,0.022203
2.9120,0.022327
2.9160,0.000641
2.9200,0.028922
2.9240,-0.009940
2.9280,-0.064523
2.9320,-0.069095
2.9360,-0.042750
2.9400,-0.088427
2.9440,-0.126434
2.9480,-0.127561
2.9520,-0.116229
2.9560,-0.137219
2.9600,-0.140155
2.9640,-0.169201
2.9680,-0.147037
2.9720,-0.227132
2.9760,-0.239943
2.9800,-0.244400
2.9840,-0.236158
2.9880,-0.244588
2.9920,-0.287152
2.9960,-0.289225
3.0000,0.694506
3.0040,0.714876
3.0080,-0.318982
3.0120,-0.341918
3.0160,-0.358837
3.0200,-0.337675
3.0240,-0.379377
3.0280,-0.420786
3.0320,-0.403433
3.0360,-0.388577
3.0400,-0.443968
3.0440,-0.386235
3.0480,-0.418962
3.0520,-0.444546
3.0560,-0.430060
3.0600,-0.452132
3.0640,-0.449904
3.0680,-0.451983
3.0720,-0.466419
3.0760,-0.461267
3.0800,-0.473195
3.0840,-0.472538
3.0880,-0.496326
3.0920,-0.506976
3.0960,-0.519926
3.1000,-0.489679
3.1040,-0.513145
3.1080,-0.507495
3.1120,-0.479166
3.1160,-0.489952
3.1200,-0.532315
3.1240,-0.527675
3.1280,-0.506083
3.1320,-0.476502
3.1360,-0.528105
3.1400,-0.520691
3.1440,-0.510638
3.1480,-0.467611
3.1520,-0.499463
3.1560,-0.451160
3.1600,-0.504751
3.1640,-0.449468
3.1680,-0.488749
3.1720,-0.501328
3.1760,-0.443033
3.1800,-0.484193
3.1840,-0.451501
3.1880,-0.474744
3.1920,-0.428697
3.1960,-0.424458
3.2000,-0.418430
3.2040,-0.407187
3.2080,-0.426888
3.2120,-0.404906
3.2160,-0.367141
3.2200,-0.391007
3.2240,-0.365596
3.2280,-0.423449
3.2320,-0.367518
3.2360,-0.344831
3.2400,-0.359514
3.2440,-0.324981
3.2480,-0.303141
3.2520,-0.286034
3.2560,-0.294724
3.2600,-0.277058
3.2640,-0.262179
3.2680,-0.251597
3.2720,-0.227494
3.2760,-0.199722
3.2800,-0.191469
3.2840,-0.207898
3.2880,-0.192240
3.2920,-0.125040
3.2960,-0.145841
3.3000,-0.120958
3.3040,-0.126339
3.3080,-0.110428
3.3120,-0.052877
3.3160,-0.081422
3.3200,-0.020996
3.3240,-0.022134
3.3280,-0.030795
3.3320,-0.015221
3.3360,0.029772
3.3400,0.048167
3.3440,0.012379
3.3480,0.102139
3.3520,0.073515
3.3560,0.089587
3.3600,0.100397
3.3640,0.108852
3.3680,0.152511
3.3720,0.127341
3.3760,0.217844
3.3800,0.166926
3.3840,0.171872
3.3880,0.246438
3.3920,0.207561
3.3960,0.253972
3.4000,0.250822
3.4040,0.253433
3.4080,0.281782
3.4120,0.301393
3.4160,0.308174
3.4200,0.308478
3.4240,0.306871
3.4280,0.343415
3.4320,0.357719
3.4360,0.338168
3.4400,0.358549
3.4440,0.343476
3.4480,0.415588
3.4520,0.402557
3.4560,0.402147
3.4600,0.423661
3.4640,0.394515
3.4680,0.404676
3.4720,0.430455
3.4760,0.470546
3.4800,0.475568
3.4840,0.440856
3.4880,0.483230
3.4920,0.470724
3.4960,0.517330
3.5000,0.478139
3.5040,0.470258
3.5080,0.492480
3.5120,0.500405
3.5160,0.527814
3.5200,0.496602
3.5240,0.518855
3.5280,0.536970
3.5320,0.477968
3.5360,0.505415
3.5400,0.524029
3.5440,0.486576
3.5480,0.515471
3.5520,0.514607
3.5560,0.507363
3.5600,0.486003
3.5640,0.514456
3.5680,0.474142
3.5720,0.466021
3.5760,0.519593
3.5800,0.502745
3.5840,0.478139
3.5880,0.478026
3.5920,0.442339
3.5960,0.467687
3.6000,0.506829
3.6040,0.435140
3.6080,0.438845
3.6120,0.490599
3.6160,0.417873
3.6200,0.431950
3.6240,0.418837
3.6280,0.462134
3.6320,0.373318
3.6360,0.371797
3.6400,0.387528
3.6440,0.367504
3.6480,0.354277
3.6520,0.346503
3.6560,0.346969
3.6600,0.317791
3.6640,0.292520
3.6680,0.274566
3.6720,0.308423
3.6760,0.248805
3.6800,0.297368
3.6840,0.282636
3.6880,0.203458
3.6920,0.234459
3.6960,0.205480
3.7000,0.224524
3.7040,0.158371
3.7080,0.161716
3.7120,0.166714
3.7160,0.094337
3.7200,0.104811
3.7240,0.113233
3.7280,0.086052
3.7320,0.100767
3.7360,0.034760
3.7400,0.069718
3.7440,0.007837
3.7480,0.036157
3.7520,0.003619
3.7560,-0.027824
3.7600,-0.019412
3.7640,-0.081872
3.7680,-0.088997
3.7720,-0.078478
3.7760,-0.117685
3.7800,-0.081296
3.7840,-0.153428
3.7880,-0.134258
3.7920,-0.165261
3.7960,-0.144484
3.8000,0.860042
3.8040,0.794434
3.8080,-0.261947
3.8120,-0.201867
3.8160,-0.251471
3.8200,-0.287309
3.8240,-0.286325
3.8280,-0.274154
3.8320,-0.281603
3.8360,-0.355420
3.8400,-0.321127
3.8440,-0.319635
3.8480,-0.345892
3.8520,-0.342245
3.8560,-0.380421
3.8600,-0.348589
3.8640,-0.392645
3.8680,-0.378188
3.8720,-0.383760
3.8760,-0.455844
3.8800,-0.416779
3.8840,-0.431313
3.8880,-0.470740
3.8920,-0.442394
3.8960,-0.422893
3.9000,-0.448448
3.9040,-0.450619
3.9080,-0.496566
3.9120,-0.481683
3.9160,-0.493556
3.9200,-0.497563
3.9240,-0.523436
3.9280,-0.522936
3.9320,-0.514109
3.9360,-0.515247
3.9400,-0.484494
3.9440,-0.525057
3.9480,-0.494688
3.9520,-0.495010
3.9560,-0.494073
3.9600,-0.489107
3.9640,-0.501863
3.9680,-0.535068
3.9720,-0.509094
3.9760,-0.514895
3.9800,-0.493586
3.9840,-0.503208
3.9880,-0.488764
3.9920,-0.511578
3.9960,-0.507749
4.0000,-0.458208
4.0040,-0.486235
4.0080,-0.494212
4.0120,-0.473033
4.0160,-0.443400
4.0200,-0.459554
4.0240,-0.461852
4.0280,-0.469793
4.0320,-0.465295
4.0360,-0.403722
4.0400,-0.423940
4.0440,-0.441748
4.0480,-0.376317
4.0520,-0.407740
4.0560,-0.370335
4.0600,-0.388813
4.0640,-0.362669
4.0680,-0.334728
4.0720,-0.322146
4.0760,-0.377467
4.0800,-0.328291
4.0840,-0.294049
4.0880,-0.279314
4.0920,-0.242554
4.0960,-0.255064
4.1000,-0.227369
4.1040,-0.264616
4.1080,-0.204150
4.1120,-0.197451
4.1160,-0.208650
4.1200,-0.184363
4.1240,-0.147002
4.1280,-0.148861
4.1320,-0.131438
4.1360,-0.095803
4.1400,-0.102891
4.1440,-0.096112
4.1480,-0.118090
4.1520,-0.075378
4.1560,-0.069541
4.1600,-0.013263
4.1640,0.003026
4.1680,0.001353
4.1720,0.040465
4.1760,0.055754
4.1800,0.031940
4.1840,0.075019
4.1880,0.093600
4.1920,0.116656
4.1960,0.122363
4.2000,0.143559
4.2040,0.098963
4.2080,0.133941
4.2120,0.187357
4.2160,0.134126
4.2200,0.184719
4.2240,0.224027
4.2280,0.174297
4.2320,0.234656
4.2360,0.302286
4.2400,0.251370
4.2440,0.264393
4.2480,0.297306
4.2520,0.302628
4.2560,0.314662
4.2600,0.311460
4.2640,0.344755
4.2680,0.362812
4.2720,0.348189
4.2760,0.357171
4.2800,0.403880
4.2840,0.403387
4.2880,0.386470
4.2920,0.424353
4.2960,0.410347
4.3000,0.418913
4.3040,0.472022
4.3080,0.440926
4.3120,0.445970
4.3160,0.468399
4.3200,0.474941
4.3240,0.484027
4.3280,0.486421
4.3320,0.494343
4.3360,0.503374
4.3400,0.463659
4.3440,0.505892
4.3480,0.513245
4.3520,0.487025
4.3560,0.479661
4.3600,0.506407
4.3640,0.463996
4.3680,0.512579
4.3720,0.491752
4.3760,0.502589
4.3800,0.497258
4.3840,0.521430
4.3880,0.549829
4.3920,0.486218
4.3960,0.501976
4.4000,0.517112
4.4040,0.489453
4.4080,0.505682
4.4120,0.500903
4.4160,0.499688
4.4200,0.439052
4.4240,0.444103
4.4280,0.468108
4.4320,0.481887
4.4360,0.465749
4.4400,0.425709
4.4440,0.482383
4.4480,0.396379
4.4520,0.441153
4.4560,0.453249
4.4600,0.416111
4.4640,0.419120
4.4680,0.399698
4.4720,0.385788
4.4760,0.381183
4.4800,0.369240
4.4840,0.328381
4.4880,0.352642
4.4920,0.343436
4.4960,0.301455
4.5000,0.292188
4.5040,0.259301
4.5080,0.265239
4.5120,0.264155
4.5160,0.266605
4.5200,0.214611
4.5240,0.244508
4.5280,0.223675
4.5320,0.152387
4.5360,0.164227
4.5400,0.178503
4.5440,0.170619
4.5480,0.155338
4.5520,0.103518
4.5560,0.127593
4.5600,0.106486
4.5640,0.010534
4.5680,0.064083
4.5720,0.080247
4.5760,-0.002830
4.5800,0.025537
4.5840,0.036472
4.5880,-0.067028
4.5920,-0.007236
4.5960,-0.039452
4.6000,0.943070
4.6040,0.927253
4.6080,-0.127521
4.6120,-0.110710
4.6160,-0.113791
4.6200,-0.132595
4.6240,-0.167762
4.6280,-0.158824
4.6320,-0.185634
4.6360,-0.197037
4.6400,-0.167820
4.6440,-0.232692
4.6480,-0.206143
4.6520,-0.233211
4.6560,-0.261586
4.6600,-0.261993
4.6640,-0.277004
4.6680,-0.329675
4.6720,-0.297159
4.6760,-0.307485
4.6800,-0.324763
4.6840,-0.356658
4.6880,-0.377493
4.6920,-0.356616
4.6960,-0.385799
4.7000,-0.374575
4.7040,-0.422606
4.7080,-0.417584
4.7120,-0.400143
4.7160,-0.444432
4.7200,-0.424046
4.7240,-0.436907
4.7280,-0.462311
4.7320,-0.419540
4.7360,-0.437068
4.7400,-0.492520
4.7440,-0.489872
4.7480,-0.547896
4.7520,-0.504049
4.7560,-0.498643
4.7600,-0.482314
4.7640,-0.482281
4.7680,-0.507274
4.7720,-0.490831
4.7760,-0.515047
4.7800,-0.515938
4.7840,-0.500656
4.7880,-0.513279
4.7920,-0.499045
4.7960,-0.490831
4.8000,-0.469832
4.8040,-0.528017
4.8080,-0.515431
4.8120,-0.525410
4.8160,-0.508572
4.8200,-0.539039
4.8240,-0.509204
4.8280,-0.485916
4.8320,-0.468612
4.8360,-0.458351
4.8400,-0.497513
4.8440,-0.428335
4.8480,-0.476318
4.8520,-0.470765
4.8560,-0.474046
4.8600,-0.483207
4.8640,-0.426905
4.8680,-0.443089
4.8720,-0.442186
4.8760,-0.425534
4.8800,-0.414473
4.8840,-0.385606
4.8880,-0.374338
4.8920,-0.380375
4.8960,-0.372406
4.9000,-0.335267
4.9040,-0.319439
4.9080,-0.312060
4.9120,-0.327120
4.9160,-0.306820
4.9200,-0.284258
4.9240,-0.249830
4.9280,-0.297323
4.9320,-0.243559
4.9360,-0.258279
4.9400,-0.240359
4.9440,-0.232826
4.9480,-0.177982
4.9520,-0.184226
4.9560,-0.228207
4.9600,-0.147263
4.9640,-0.109424
4.9680,-0.100684
4.9720,-0.088690
4.9760,-0.098555
4.9800,-0.106292
4.9840,-0.047689
4.9880,-0.040563
4.9920,-0.019103
4.9960,0.002706
5.0000,0.002983
5.0040,-0.015562
5.0080,0.001028
5.0120,0.039439
5.0160,0.082621
5.0200,0.084477
5.0240,0.058713
5.0280,0.113989
5.0320,0.079945
5.0360,0.160263
5.0400,0.181592
5.0440,0.166832
5.0480,0.171664
5.0520,0.188484
5.0560,0.196139
5.0600,0.227622
5.0640,0.216264
5.0680,0.257403
5.0720,0.246376
5.0760,0.304873
5.0800,0.301633
5.0840,0.295876
5.0880,0.308314
5.0920,0.317514
5.0960,0.339366
5.1000,0.350999
5.1040,0.363358
5.1080,0.384334
5.1120,0.367553
5.1160,0.337034
5.1200,0.410760
5.1240,0.397743
5.1280,0.432165
5.1320,0.440482
5.1360,0.456850
5.1400,0.460526
5.1440,0.457912
5.1480,0.464094
5.1520,0.455819
5.1560,0.454224
5.1600,0.474572
5.1640,0.476499
5.1680,0.445209
5.1720,0.478043
5.1760,0.479019
5.1800,0.503196
5.1840,0.514171
5.1880,0.502755
5.1920,0.490344
5.1960,0.515444
5.2000,0.515698
5.2040,0.482859
5.2080,0.525373
5.2120,0.512268
5.2160,0.478355
5.2200,0.522654
5.2240,0.474793
5.2280,0.498917
5.2320,0.486232
5.2360,0.492513
5.2400,0.501129
5.2440,0.501947
5.2480,0.479622
5.2520,0.494480
5.2560,0.466629
5.2600,0.493202
5.2640,0.447710
5.2680,0.487386
5.2720,0.455159
5.2760,0.463197
5.2800,0.428091
5.2840,0.415554
5.2880,0.401512
5.2920,0.394568
5.2960,0.431495
5.3000,0.405019
5.3040,0.371287
5.3080,0.335214
5.3120,0.401304
5.3160,0.348702
5.3200,0.351571
5.3240,0.328651
5.3280,0.318293
5.3320,0.309021
5.3360,0.287076
5.3400,0.255820
5.3440,0.233603
5.3480,0.264909
5.3520,0.235658
5.3560,0.177379
5.3600,0.187560
5.3640,0.212453
5.3680,0.170392
5.3720,0.155696
5.3760,0.161629
5.3800,0.111387
5.3840,0.114371
5.3880,0.103693
5.3920,0.116709
5.3960,1.071611
5.4000,1.099908
5.4040,0.063153
5.4080,0.009197
5.4120,0.050599
5.4160,-0.002385
5.4200,-0.017905
5.4240,-0.040559
5.4280,-0.074365
5.4320,-0.072062
5.4360,-0.071413
5.4400,-0.093526
5.4440,-0.077155
5.4480,-0.092883
5.4520,-0.131003
5.4560,-0.119664
5.4600,-0.148406
5.4640,-0.216772
5.4680,-0.225655
5.4720,-0.211794
5.4760,-0.221990
5.4800,-0.226166
5.4840,-0.191061
5.4880,-0.290430
5.4920,-0.249973
5.4960,-0.264659
5.5000,-0.307487
5.5040,-0.318943
5.5080,-0.308173
5.5120,-0.333088
5.5160,-0.290109
5.5200,-0.360349
5.5240,-0.382220
5.5280,-0.401492
5.5320,-0.368459
5.5360,-0.421920
5.5400,-0.391685
5.5440,-0.428165
5.5480,-0.433172
5.5520,-0.428856
5.5560,-0.439808
5.5600,-0.486119
5.5640,-0.445953
5.5680,-0.471174
5.5720,-0.489771
5.5760,-0.441141
5.5800,-0.479657
5.5840,-0.452414
5.5880,-0.483470
5.5920,-0.499733
5.5960,-0.464520
5.6000,-0.490675
5.6040,-0.506490
5.6080,-0.544951
5.6120,-0.504754
5.6160,-0.485954
5.6200,-0.512860
5.6240,-0.538504
5.6280,-0.493492
5.6320,-0.528702
5.6360,-0.476338
5.6400,-0.545292
5.6440,-0.500259
5.6480,-0.509205
5.6520,-0.531016
5.6560,-0.501709
5.6600,-0.505489
5.6640,-0.470793
5.6680,-0.460399
5.6720,-0.464338
5.6760,-0.459311
5.6800,-0.449475
5.6840,-0.452023
5.6880,-0.432901
5.6920,-0.430454
5.6960,-0.418031
5.7000,-0.396722
5.7040,-0.408192
5.7080,-0.427966
5.7120,-0.416547
5.7160,-0.395327
5.7200,-0.413835
5.7240,-0.367820
5.7280,-0.355096
5.7320,-0.363986
5.7360,-0.313544
5.7400,-0.338673
5.7440,-0.313512
5.7480,-0.296936
5.7520,-0.289624
5.7560,-0.264342
5.7600,-0.211896
5.7640,-0.233504
5.7680,-0.282344
5.7720,-0.209434
5.7760,-0.206466
5.7800,-0.189616
5.7840,-0.209958
5.7880,-0.178336
5.7920,-0.151360
5.7960,-0.184200
5.8000,-0.110591
5.8040,-0.109492
5.8080,-0.082087
5.8120,-0.048060
5.8160,-0.021757
5.8200,-0.014424
5.8240,-0.048210
5.8280,-0.066684
5.8320,-0.011042
5.8360,0.046405
5.8400,0.018203
5.8440,0.044364
5.8480,0.044509
5.8520,0.051356
5.8560,0.100807
5.8600,0.080118
5.8640,0.142209
5.8680,0.132737
5.8720,0.169621
5.8760,0.176103
5.8800,0.190382
5.8840,0.227539
5.8880,0.200164
5.8920,0.187687
5.8960,0.235583
5.9000,0.211212
5.9040,0.290436
5.9080,0.275392
5.9120,0.290180
5.9160,0.290067
5.9200,0.303020
5.9240,0.289256
5.9280,0.329442
5.9320,0.350684
5.9360,0.351169
5.9400,0.357930
5.9440,0.369771
5.9480,0.432214
5.9520,0.347299
5.9560,0.386015
5.9600,0.410029
5.9640,0.442163
5.9680,0.477113
5.9720,0.453846
5.9760,0.452865
5.9800,0.441132
5.9840,0.455846
5.9880,0.464461
5.9920,0.509721
5.9960,0.511858
6.0000,0.535493
6.0040,0.461592
6.0080,0.511109
6.0120,0.483907
6.0160,0.502768
6.0200,0.508966
6.0240,0.533229
6.0280,0.480932
6.0320,0.487051
6.0360,0.518378
6.0400,0.499388
6.0440,0.477313
6.0480,0.523738
6.0520,0.508198
6.0560,0.510250
6.0600,0.528565
6.0640,0.529163
6.0680,0.503385
6.0720,0.465776
6.0760,0.509377
6.0800,0.496324
6.0840,0.514144
6.0880,0.504265
6.0920,0.474386
6.0960,0.457891
6.1000,0.489939
6.1040,0.455958
6.1080,0.435728
6.1120,0.457349
6.1160,0.450048
6.1200,0.454226
6.1240,0.404819
6.1280,0.385002
6.1320,0.386887
6.1360,0.352132
6.1400,0.331223
6.1440,0.362921
6.1480,0.315388
6.1520,0.343444
6.1560,0.344823
6.1600,0.344347
6.1640,0.314693
6.1680,0.275033
6.1720,0.241869
6.1760,0.245152
6.1800,0.257481
6.1840,0.277894
6.1880,0.223161
6.1920,0.210235
6.1960,1.231870
6.2000,1.197091
6.2040,0.182744
6.2080,0.147881
6.2120,0.190551
6.2160,0.149263
6.2200,0.115156
6.2240,0.105537
6.2280,0.095313
6.2320,0.081080
6.2360,0.006943
6.2400,0.043562
6.2440,0.019855
6.2480,-0.001522
6.2520,-0.040759
6.2560,-0.010223
6.2600,-0.047404
6.2640,-0.059019
6.2680,-0.072406
6.2720,-0.103064
6.2760,-0.108734
6.2800,-0.143898
6.2840,-0.152377
6.2880,-0.168570
6.2920,-0.137424
6.2960,-0.171800
6.3000,-0.216099
6.3040,-0.192529
6.3080,-0.218734
6.3120,-0.222644
6.3160,-0.266728
6.3200,-0.232113
6.3240,-0.286025
6.3280,-0.238769
6.3320,-0.317241
6.3360,-0.263445
6.3400,-0.321973
6.3440,-0.339929
6.3480,-0.352458
6.3520,-0.338216
6.3560,-0.372328
6.3600,-0.367542
6.3640,-0.384835
6.3680,-0.390138
6.3720,-0.418977
6.3760,-0.414153
6.3800,-0.412665
6.3840,-0.402763
6.3880,-0.428897
6.3920,-0.430772
6.3960,-0.462976
6.4000,-0.485563
6.4040,-0.461567
6.4080,-0.477244
6.4120,-0.505827
6.4160,-0.457145
6.4200,-0.459452
6.4240,-0.520457
6.4280,-0.505402
6.4320,-0.461343
6.4360,-0.476858
6.4400,-0.494303
6.4440,-0.494340
6.4480,-0.511974
6.4520,-0.531261
6.4560,-0.462129
6.4600,-0.491236
6.4640,-0.467879
6.4680,-0.504000
6.4720,-0.508648
6.4760,-0.495696
6.4800,-0.494826
6.4840,-0.504339
6.4880,-0.490374
6.4920,-0.541457
6.4960,-0.484402
6.5000,-0.478054
6.5040,-0.465779
6.5080,-0.469360
6.5120,-0.453753
6.5160,-0.505985
6.5200,-0.447229
6.5240,-0.436082
6.5280,-0.444610
6.5320,-0.410016
6.5360,-0.411812
6.5400,-0.422304
6.5440,-0.418708
6.5480,-0.395856
6.5520,-0.392539
6.5560,-0.332240
6.5600,-0.351141
6.5640,-0.325310
6.5680,-0.358833
6.5720,-0.325690
6.5760,-0.282750
6.5800,-0.342421
6.5840,-0.296021
6.5880,-0.287515
6.5920,-0.278415
6.5960,-0.246176
6.6000,-0.240936
6.6040,-0.229166
6.6080,-0.222676
6.6120,-0.237279
6.6160,-0.177886
6.6200,-0.172109
6.6240,-0.200851
6.6280,-0.152196
6.6320,-0.117321
6.6360,-0.134941
6.6400,-0.094463
6.6440,-0.096353
6.6480,-0.070168
6.6520,-0.070119
6.6560,-0.036331
6.6600,0.014366
6.6640,-0.023932
6.6680,0.016288
6.6720,-0.001342
6.6760,0.020353
6.6800,0.080524
6.6840,0.068077
6.6880,0.096786
6.6920,0.102291
6.6960,0.114909
6.7000,0.105788
6.7040,0.181259
6.7080,0.171868
6.7120,0.213193
6.7160,0.181103
6.7200,0.205532
6.7240,0.229724
6.7280,0.239534
6.7320,0.215967
6.7360,0.255781
6.7400,0.259740
6.7440,0.304665
6.7480,0.302687
6.7520,0.310320
6.7560,0.325332
6.7600,0.360977
6.7640,0.348608
6.7680,0.360218
6.7720,0.338645
6.7760,0.379549
6.7800,0.393628
6.7840,0.372989
6.7880,0.387065
6.7920,0.411536
6.7960,0.457154
6.8000,0.421643
6.8040,0.417898
6.8080,0.448732
6.8120,0.487792
6.8160,0.498706
6.8200,0.448298
6.8240,0.474370
6.8280,0.465429
6.8320,0.519088
6.8360,0.538256
6.8400,0.483982
6.8440,0.538342
6.8480,0.492250
6.8520,0.500408
6.8560,0.535414
6.8600,0.511141
6.8640,0.533280
6.8680,0.518028
6.8720,0.485742
6.8760,0.504321
6.8800,0.482650
6.8840,0.505159
6.8880,0.498291
6.8920,0.509109
6.8960,0.512510
6.9000,0.544459
6.9040,0.510637
6.9080,0.508462
6.9120,0.506302
6.9160,0.504672
6.9200,0.500703
6.9240,0.499111
6.9280,0.472373
6.9320,0.459610
6.9360,0.450429
6.9400,0.449224
6.9440,0.424908
6.9480,0.432187
6.9520,0.445327
6.9560,0.441339
6.9600,0.395735
6.9640,0.385414
6.9680,0.389996
6.9720,0.379137
6.9760,0.353649
6.9800,0.361044
6.9840,0.357495
6.9880,0.375869
6.9920,0.331981
6.9960,1.330872
7.0000,1.335662
7.0040,0.306833
7.0080,0.257099
7.0120,0.258105
7.0160,0.240659
7.0200,0.224589
7.0240,0.217022
7.0280,0.189173
7.0320,0.210006
7.0360,0.150307
7.0400,0.172804
7.0440,0.121719
7.0480,0.120971
7.0520,0.086816
7.0560,0.132400
7.0600,0.069897
7.0640,0.055755
7.0680,0.061378
7.0720,0.027540
7.0760,0.007779
7.0800,-0.033422
7.0840,0.012278
7.0880,-0.046163
7.0920,-0.001742
7.0960,-0.018975
7.1000,-0.050090
7.1040,-0.068965
7.1080,-0.134744
7.1120,-0.111042
7.1160,-0.110722
7.1200,-0.103762
7.1240,-0.162141
7.1280,-0.178573
7.1320,-0.200639
7.1360,-0.198444
7.1400,-0.216149
7.1440,-0.256484
7.1480,-0.214998
7.1520,-0.286480
7.1560,-0.298145
7.1600,-0.287037
7.1640,-0.282771
7.1680,-0.314635
7.1720,-0.331131
7.1760,-0.314064
7.1800,-0.317262
7.1840,-0.326841
7.1880,-0.364493
7.1920,-0.374941
7.1960,-0.367508
7.2000,-0.392989
7.2040,-0.384933
7.2080,-0.433757
7.2120,-0.422367
7.2160,-0.445966
7.2200,-0.428316
7.2240,-0.470402
7.2280,-0.460191
7.2320,-0.479418
7.2360,-0.466529
7.2400,-0.498144
7.2440,-0.509416
7.2480,-0.507964
7.2520,-0.475249
7.2560,-0.474994
7.2600,-0.503312
7.2640,-0.509182
7.2680,-0.544132
7.2720,-0.490506
7.2760,-0.492544
7.2800,-0.514680
7.2840,-0.546267
7.2880,-0.507619
7.2920,-0.500782
7.2960,-0.526562
7.3000,-0.505154
7.3040,-0.495775
7.3080,-0.515481
7.3120,-0.476518
7.3160,-0.506928
7.3200,-0.517969
7.3240,-0.490566
7.3280,-0.494819
7.3320,-0.461033
7.3360,-0.512483
7.3400,-0.491671
7.3440,-0.422666
7.3480,-0.470908
7.3520,-0.459469
7.3560,-0.490852
7.3600,-0.482858
7.3640,-0.404346
7.3680,-0.472150
7.3720,-0.388146
7.3760,-0.385369
7.3800,-0.367877
7.3840,-0.386517
7.3880,-0.376822
7.3920,-0.354046
7.3960,-0.344356
7.4000,-0.365140
7.4040,-0.381843
7.4080,-0.339305
7.4120,-0.348168
7.4160,-0.310330
7.4200,-0.307826
7.4240,-0.295751
7.4280,-0.282678
7.4320,-0.252099
7.4360,-0.239791
7.4400,-0.197285
7.4440,-0.247554
7.4480,-0.206496
7.4520,-0.144247
7.4560,-0.160596
7.4600,-0.146334
7.4640,-0.135205
7.4680,-0.138579
7.4720,-0.120512
7.4760,-0.108778
7.4800,-0.086585
7.4840,-0.061382
7.4880,-0.041728
7.4920,-0.061517
7.4960,-0.065009
7.5000,-0.006375
7.5040,0.029441
7.5080,0.043878
7.5120,0.012842
7.5160,0.020129
7.5200,0.035697
7.5240,0.102818
7.5280,0.121748
7.5320,0.163922
7.5360,0.159723
7.5400,0.168427
7.5440,0.148590
7.5480,0.180182
7.5520,0.225431
7.5560,0.207729
7.5600,0.212731
7.5640,0.229453
7.5680,0.216148
7.5720,0.292190
7.5760,0.262821
7.5800,0.315188
7.5840,0.318488
7.5880,0.284258
7.5920,0.330298
7.5960,0.320279
7.6000,0.366798
7.6040,0.358754
7.6080,0.391655
7.6120,0.372574
7.6160,0.419101
7.6200,0.400921
7.6240,0.389236
7.6280,0.436242
7.6320,0.431554
7.6360,0.446626
7.6400,0.472085
7.6440,0.458816
7.6480,0.472971
7.6520,0.474897
7.6560,0.484257
7.6600,0.438694
7.6640,0.501011
7.6680,0.527612
7.6720,0.509838
7.6760,0.500607
7.6800,0.496004
7.6840,0.531085
7.6880,0.523379
7.6920,0.509847
7.6960,0.512579
7.7000,0.527301
7.7040,0.534399
7.7080,0.502060
7.7120,0.547726
7.7160,0.520520
7.7200,0.508602
7.7240,0.488317
7.7280,0.481005
7.7320,0.499701
7.7360,0.496198
7.7400,0.507828
7.7440,0.497090
7.7480,0.497772
7.7520,0.465260
7.7560,0.468696
7.7600,0.428515
7.7640,0.440249
7.7680,0.426105
7.7720,0.443224
7.7760,0.449995
7.7800,0.460553
7.7840,0.428992
7.7880,0.455653
7.7920,0.418570
7.7960,1.421089
7.8000,1.456779
7.8040,0.413370
7.8080,0.363980
7.8120,0.371554
7.8160,0.349832
7.8200,0.342259
7.8240,0.356197
7.8280,0.329084
7.8320,0.293945
7.8360,0.315483
7.8400,0.272664
7.8440,0.287189
7.8480,0.263290
7.8520,0.260883
7.8560,0.222640
7.8600,0.207674
7.8640,0.194794
7.8680,0.181988
7.8720,0.172388
7.8760,0.168801
7.8800,0.144171
7.8840,0.155659
7.8880,0.100965
7.8920,0.065724
7.8960,0.090579
7.9000,0.036423
7.9040,0.030841
7.9080,0.047451
7.9120,-0.001823
7.9160,-0.038386
7.9200,-0.026402
7.9240,-0.036488
7.9280,-0.068261
7.9320,-0.035376
7.9360,-0.090325
7.9400,-0.107477
7.9440,-0.081647
7.9480,-0.113325
7.9520,-0.152509
7.9560,-0.147835
7.9600,-0.163451
7.9640,-0.176132
7.9680,-0.211582
7.9720,-0.217529
7.9760,-0.230916
7.9800,-0.232025
7.9840,-0.251168
7.9880,-0.246819
7.9920,-0.292329
7.9960,-0.337217
8.0000,-0.301264
8.0040,-0.313171
8.0080,-0.339776
8.0120,-0.312881
8.0160,-0.345346
8.0200,-0.331041
8.0240,-0.368747
8.0280,-0.366123
8.0320,-0.380980
8.0360,-0.371144
8.0400,-0.388292
8.0440,-0.413785
8.0480,-0.397789
8.0520,-0.418403
8.0560,-0.441213
8.0600,-0.471330
8.0640,-0.455636
8.0680,-0.425767
8.0720,-0.479998
8.0760,-0.489634
8.0800,-0.454047
8.0840,-0.505665
8.0880,-0.480523
8.0920,-0.475484
8.0960,-0.503324
8.1000,-0.487027
8.1040,-0.517299
8.1080,-0.527525
8.1120,-0.517908
8.1160,-0.548722
8.1200,-0.504624
8.1240,-0.512764
8.1280,-0.505495
8.1320,-0.480857
8.1360,-0.502274
8.1400,-0.494449
8.1440,-0.525535
8.1480,-0.497773
8.1520,-0.499097
8.1560,-0.495506
8.1600,-0.507726
8.1640,-0.467484
8.1680,-0.493924
8.1720,-0.472648
8.1760,-0.478186
8.1800,-0.483231
8.1840,-0.489678
8.1880,-0.406485
8.1920,-0.471120
8.1960,-0.471449
8.2000,-0.452804
8.2040,-0.414309
8.2080,-0.404127
8.2120,-0.421087
8.2160,-0.390086
8.2200,-0.403680
8.2240,-0.362134
8.2280,-0.340508
8.2320,-0.378422
8.2360,-0.385463
8.2400,-0.315799
8.2440,-0.328163
8.2480,-0.303180
8.2520,-0.341530
8.2560,-0.293388
8.2600,-0.263334
8.2640,-0.256535
8.2680,-0.229005
8.2720,-0.232396
8.2760,-0.209131
8.2800,-0.194845
8.2840,-0.194621
8.2880,-0.157344
8.2920,-0.178934
8.2960,-0.143759
8.3000,-0.122543
8.3040,-0.075387
8.3080,-0.124934
8.3120,-0.082202
8.3160,-0.070763
8.3200,-0.028535
8.3240,-0.031690
8.3280,-0.031713
8.3320,-0.012393
8.3360,0.062702
8.3400,0.015798
8.3440,0.050397
8.3480,0.114059
8.3520,0.044668
8.3560,0.091915
8.3600,0.129809
8.3640,0.066459
8.3680,0.135967
8.3720,0.165320
8.3760,0.166121
8.3800,0.160403
8.3840,0.192028
8.3880,0.189079
8.3920,0.214372
8.3960,0.237762
8.4000,0.260443
8.4040,0.247689
8.4080,0.223330
8.4120,0.285894
8.4160,0.268288
8.4200,0.328842
8.4240,0.336623
8.4280,0.359111
8.4320,0.342407
8.4360,0.336119
8.4400,0.391666
8.4440,0.339290
8.4480,0.369687
8.4520,0.429003
8.4560,0.360298
8.4600,0.436642
8.4640,0.433321
8.4680,0.425042
8.4720,0.448037
8.4760,0.405564
8.4800,0.437324
8.4840,0.445800
8.4880,0.477496
8.4920,0.475990
8.4960,0.501032
8.5000,0.512561
8.5040,0.441943
8.5080,0.487160
8.5120,0.459157
8.5160,0.484584
8.5200,0.530886
8.5240,0.543054
8.5280,0.497779
8.5320,0.558036
8.5360,0.520397
8.5400,0.527323
8.5440,0.520608
8.5480,0.540816
8.5520,0.522324
8.5560,0.521450
8.5600,0.522522
8.5640,0.533758
8.5680,0.493972
8.5720,0.474177
8.5760,0.486537
8.5800,0.477053
8.5840,0.470536
8.5880,0.476117
8.5920,0.460218
8.5960,0.461863
8.6000,1.508373
8.6040,1.482794
8.6080,0.459593
8.6120,0.432022
8.6160,0.409262
8.6200,0.438677
8.6240,0.420490
8.6280,0.376167
8.6320,0.403966
8.6360,0.384794
8.6400,0.369082
8.6440,0.351454
8.6480,0.346143
8.6520,0.344178
8.6560,0.344453
8.6600,0.332537
8.6640,0.260159
8.6680,0.271596
8.6720,0.274890
8.6760,0.301556
8.6800,0.276906
8.6840,0.260667
8.6880,0.235658
8.6920,0.217961
8.6960,0.223609
8.7000,0.189230
8.7040,0.213440
8.7080,0.123840
8.7120,0.168124
8.7160,0.116172
8.7200,0.102267
8.7240,0.092211
8.7280,0.068301
8.7320,0.109834
8.7360,0.037091
8.7400,0.030892
8.7440,0.029794
8.7480,-0.012244
8.7520,-0.008198
8.7560,-0.021777
8.7600,-0.070129
8.7640,-0.062342
8.7680,-0.061238
8.7720,-0.094076
8.7760,-0.093860
8.7800,-0.104171
8.7840,-0.095612
8.7880,-0.160328
8.7920,-0.154514
8.7960,-0.136871
8.8000,-0.192378
8.8040,-0.210124
8.8080,-0.217188
8.8120,-0.216209
8.8160,-0.224930
8.8200,-0.266680
8.8240,-0.279618
8.8280,-0.307158
8.8320,-0.270483
8.8360,-0.301569
8.8400,-0.308577
8.8440,-0.301921
8.8480,-0.347275
8.8520,-0.296680
8.8560,-0.323569
8.8600,-0.385685
8.8640,-0.391818
8.8680,-0.368182
8.8720,-0.411192
8.8760,-0.422528
8.8800,-0.415621
8.8840,-0.438483
8.8880,-0.430517
8.8920,-0.426503
8.8960,-0.447883
8.9000,-0.440071
8.9040,-0.438870
8.9080,-0.513928
8.9120,-0.480975
8.9160,-0.449026
8.9200,-0.533447
8.9240,-0.499104
8.9280,-0.520208
8.9320,-0.469356
8.9360,-0.525625
8.9400,-0.534615
8.9440,-0.522052
8.9480,-0.488125
8.9520,-0.507600
8.9560,-0.517518
8.9600,-0.541536
8.9640,-0.502419
8.9680,-0.486763
8.9720,-0.521474
8.9760,-0.541814
8.9800,-0.518237
8.9840,-0.490328
8.9880,-0.511159
8.9920,-0.530534
8.9960,-0.496307
9.0000,-0.476240
9.0040,-0.427467
9.0080,-0.472887
9.0120,-0.463861
9.0160,-0.496353
9.0200,-0.444202
9.0240,-0.449098
9.0280,-0.420732
9.0320,-0.427082
9.0360,-0.400862
9.0400,-0.406637
9.0440,-0.398127
9.0480,-0.390434
9.0520,-0.410585
9.0560,-0.381421
9.0600,-0.381705
9.0640,-0.381346
9.0680,-0.350798
9.0720,-0.331205
9.0760,-0.336519
9.0800,-0.298428
9.0840,-0.335776
9.0880,-0.264699
9.0920,-0.264152
9.0960,-0.266113
9.1000,-0.212249
9.1040,-0.201066
9.1080,-0.185985
9.1120,-0.171700
9.1160,-0.168923
9.1200,-0.171375
9.1240,-0.162352
9.1280,-0.144788
9.1320,-0.132828
9.1360,-0.079694
9.1400,-0.092358
9.1440,-0.086505
9.1480,-0.093261
9.1520,-0.042934
9.1560,-0.022772
9.1600,-0.006576
9.1640,-0.003083
9.1680,-0.008173
9.1720,0.018938
9.1760,0.006002
9.1800,0.098434
9.1840,0.082967
9.1880,0.112976
9.1920,0.109982
9.1960,0.126938
9.2000,0.143058
9.2040,0.138397
9.2080,0.126996
9.2120,0.158712
9.2160,0.203427
9.2200,0.196855
9.2240,0.188006
9.2280,0.236332
9.2320,0.238698
9.2360,0.231688
9.2400,0.276934
9.2440,0.271839
9.2480,0.309302
9.2520,0.327876
9.2560,0.346759
9.2600,0.336900
9.2640,0.339028
9.2680,0.361974
9.2720,0.351664
9.2760,0.365099
9.2800,0.385043
9.2840,0.380096
9.2880,0.403204
9.2920,0.457119
9.2960,0.381844
9.3000,0.438019
9.3040,0.418461
9.3080,0.444659
9.3120,0.452488
9.3160,0.484461
9.3200,0.460347
9.3240,0.447249
9.3280,0.466073
9.3320,0.513873
9.3360,0.521717
9.3400,0.499134
9.3440,0.511761
9.3480,0.493246
9.3520,0.487761
9.3560,0.523024
9.3600,0.511636
9.3640,0.523910
9.3680,0.513839
9.3720,0.487974
9.3760,0.475906
9.3800,0.468393
9.3840,0.520062
9.3880,0.489365
9.3920,0.492064
9.3960,1.513291
9.4000,1.549660
9.4040,0.505649
9.4080,0.524240
9.4120,0.491190
9.4160,0.465779
9.4200,0.474118
9.4240,0.476268
9.4280,0.443663
9.4320,0.457000
9.4360,0.449152
9.4400,0.486308
9.4440,0.429731
9.4480,0.433001
9.4520,0.439730
9.4560,0.408861
9.4600,0.414097
9.4640,0.393840
9.4680,0.370621
9.4720,0.373956
9.4760,0.350463
9.4800,0.357662
9.4840,0.357079
9.4880,0.333953
9.4920,0.339864
9.4960,0.297781
9.5000,0.310526
9.5040,0.266006
9.5080,0.305803
9.5120,0.275575
9.5160,0.201292
9.5200,0.173811
9.5240,0.240718
9.5280,0.217128
9.5320,0.169929
9.5360,0.149306
9.5400,0.181888
9.5440,0.155900
9.5480,0.151187
9.5520,0.111734
9.5560,0.096524
9.5600,0.067847
9.5640,0.059100
9.5680,0.062808
9.5720,0.060484
9.5760,0.022695
9.5800,0.007961
9.5840,-0.033648
9.5880,0.001204
9.5920,-0.037879
9.5960,-0.050530
9.6000,-0.086334
9.6040,-0.100047
9.6080,-0.107574
9.6120,-0.109245
9.6160,-0.126165
9.6200,-0.142237
9.6240,-0.159241
9.6280,-0.126110
9.6320,-0.167839
9.6360,-0.171731
9.6400,-0.244184
9.6440,-0.212212
9.6480,-0.235339
9.6520,-0.279455
9.6560,-0.265746
9.6600,-0.259045
9.6640,-0.296873
9.6680,-0.317273
9.6720,-0.275116
9.6760,-0.326172
9.6800,-0.372990
9.6840,-0.373181
9.6880,-0.359284
9.6920,-0.374431
9.6960,-0.378942
9.7000,-0.430938
9.7040,-0.357376
9.7080,-0.470083
9.7120,-0.430070
9.7160,-0.398905
9.7200,-0.413405
9.7240,-0.432422
9.7280,-0.434412
9.7320,-0.453259
9.7360,-0.437565
9.7400,-0.490195
9.7440,-0.513295
9.7480,-0.473867
9.7520,-0.479170
9.7560,-0.482592
9.7600,-0.482197
9.7640,-0.512877
9.7680,-0.509244
9.7720,-0.476271
9.7760,-0.528569
9.7800,-0.484205
9.7840,-0.529093
9.7880,-0.531361
9.7920,-0.492963
9.7960,-0.495597
9.8000,-0.516807
9.8040,-0.481376
9.8080,-0.495008
9.8120,-0.491213
9.8160,-0.498234
9.8200,-0.456872
9.8240,-0.470719
9.8280,-0.512741
9.8320,-0.472021
9.8360,-0.461865
9.8400,-0.439782
9.8440,-0.469498
9.8480,-0.475866
9.8520,-0.487298
9.8560,-0.452021
9.8600,-0.418031
9.8640,-0.424892
9.8680,-0.401080
9.8720,-0.429503
9.8760,-0.412797
9.8800,-0.406308
9.8840,-0.427140
9.8880,-0.387895
9.8920,-0.442864
9.8960,-0.361550
9.9000,-0.365140
9.9040,-0.310082
9.9080,-0.338618
9.9120,-0.332737
9.9160,-0.287439
9.9200,-0.287534
9.9240,-0.285671
9.9280,-0.219676
9.9320,-0.254248
9.9360,-0.233994
9.9400,-0.224112
9.9440,-0.179447
9.9480,-0.185374
9.9520,-0.190324
9.9560,-0.147509
9.9600,-0.144051
9.9640,-0.145679
9.9680,-0.114052
9.9720,-0.077546
9.9760,-0.097234
9.9800,-0.065130
9.9840,-0.055921
9.9880,-0.027929
9.9920,-0.055139
9.9960,-0.023928
