time,ecg
0.0000,-0.001642
0.0042,0.055483
0.0083,0.025493
0.0125,0.058684
0.0166,0.080103
0.0208,0.063416
0.0250,0.102608
0.0291,0.132481
0.0333,0.101777
0.0374,0.143342
0.0416,0.157430
0.0458,0.159836
0.0499,0.192954
0.0541,0.202754
0.0582,0.207359
0.0624,0.173390
0.0666,0.250298
0.0707,0.252724
0.0749,0.251324
0.0790,0.282982
0.0832,0.276691
0.0874,0.299354
0.0915,0.310851
0.0957,0.296443
0.0998,0.320377
0.1040,0.346698
0.1082,0.393599
0.1123,0.366403
0.1165,0.374543
0.1206,0.364511
0.1248,0.381471
0.1290,0.350599
0.1331,0.451905
0.1373,0.435209
0.1414,0.410560
0.1456,0.448647
0.1498,0.430758
0.1539,0.454040
0.1581,0.441955
0.1622,0.464331
0.1664,0.423727
0.1706,0.489025
0.1747,0.453261
0.1789,0.482520
0.1830,0.449103
0.1872,0.506460
0.1914,0.460722
0.1955,0.511836
0.1997,0.523691
0.2038,0.474637
0.2080,0.505850
0.2122,0.476600
0.2163,0.455281
0.2205,0.519446
0.2246,0.489297
0.2288,0.461839
0.2330,0.472506
0.2371,0.467574
0.2413,0.527266
0.2454,0.486072
0.2496,0.496065
0.2538,0.495463
0.2579,0.489614
0.2621,0.454696
0.2662,0.481031
0.2704,0.415056
0.2746,0.450563
0.2787,0.415395
0.2829,0.433194
0.2870,0.415758
0.2912,0.396633
0.2954,0.397875
0.2995,0.394919
0.3037,0.399319
0.3078,0.386006
0.3120,0.379393
0.3162,0.346951
0.3203,0.361690
0.3245,0.380557
0.3286,0.319852
0.3328,0.303993
0.3370,0.322124
0.3411,0.329421
0.3453,0.286728
0.3494,0.304848
0.3536,0.269981
0.3578,0.236252
0.3619,0.255265
0.3661,0.234124
0.3702,0.197378
0.3744,0.185694
0.3786,0.179474
0.3827,0.144080
0.3869,0.128584
0.3910,0.139053
0.3952,0.130077
0.3994,0.134946
0.4035,0.111391
0.4077,0.085272
0.4118,0.087661
0.4160,0.018303
0.4202,0.093960
0.4243,0.047895
0.4285,0.017212
0.4326,-0.000114
0.4368,-0.035902
0.4410,-0.020507
0.4451,-0.038192
0.4493,-0.049493
0.4534,-0.057696
0.4576,-0.070345
0.4618,-0.094241
0.4659,-0.106025
0.4701,-0.123149
0.4742,-0.155152
0.4784,-0.163004
0.4826,-0.180918
0.4867,-0.174262
0.4909,-0.182965
0.4950,-0.230169
0.4992,-0.253872
0.5034,-0.217585
0.5075,-0.237785
0.5117,-0.284380
0.5158,-0.291007
0.5200,-0.292283
0.5242,-0.320563
0.5283,-0.292929
0.5325,-0.297538
0.5366,-0.340327
0.5408,-0.331103
0.5450,-0.320184
0.5491,-0.346353
0.5533,-0.364152
0.5574,-0.408189
0.5616,-0.389464
0.5658,-0.394908
0.5699,-0.397727
0.5741,-0.411344
0.5782,-0.440810
0.5824,-0.452889
0.5866,-0.464237
0.5907,-0.404213
0.5949,-0.483850
0.5990,-0.478695
0.6032,-0.486658
0.6074,-0.425789
0.6115,-0.467266
0.6157,-0.490452
0.6198,-0.477171
0.6240,0.491499
0.6282,0.516585
0.6323,-0.483894
0.6365,-0.489994
0.6406,-0.518684
0.6448,-0.458637
0.6490,-0.495251
0.6531,-0.480198
0.6573,-0.470897
0.6614,-0.454490
0.6656,-0.486207
0.6698,-0.481202
0.6739,-0.513402
0.6781,-0.465374
0.6822,-0.490561
0.6864,-0.488547
0.6906,-0.444668
0.6947,-0.513098
0.6989,-0.481385
0.7030,-0.472981
0.7072,-0.456053
0.7114,-0.450001
0.7155,-0.447599
0.7197,-0.413485
0.7238,-0.410539
0.7280,-0.391239
0.7322,-0.418927
0.7363,-0.379295
0.7405,-0.359176
0.7446,-0.411438
0.7488,-0.372425
0.7530,-0.353581
0.7571,-0.319364
0.7613,-0.339604
0.7654,-0.359812
0.7696,-0.318709
0.7738,-0.301766
0.7779,-0.318855
0.7821,-0.314543
0.7862,-0.278688
0.7904,-0.249115
0.7946,-0.247985
0.7987,-0.200775
0.8029,-0.232311
0.8070,-0.215409
0.8112,-0.183609
0.8154,-0.186995
0.8195,-0.172106
0.8237,-0.143970
0.8278,-0.175949
0.8320,-0.154059
0.8362,-0.117208
0.8403,-0.096861
0.8445,-0.119362
0.8486,-0.067845
0.8528,-0.078869
0.8570,-0.038620
0.8611,-0.012648
0.8653,-0.004081
0.8694,0.013305
0.8736,0.027742
0.8778,0.028620
0.8819,0.040712
0.8861,0.064786
0.8902,0.110742
0.8944,0.111929
0.8986,0.108742
0.9027,0.152879
0.9069,0.151197
0.9110,0.159499
0.9152,0.167973
0.9194,0.150507
0.9235,0.218378
0.9277,0.202304
0.9318,0.264918
0.9360,0.243582
0.9402,0.223298
0.9443,0.242129
0.9485,0.315310
0.9526,0.275560
0.9568,0.274922
0.9610,0.306829
0.9651,0.332883
0.9693,0.313306
0.9734,0.312237
0.9776,0.349552
0.9818,0.366145
0.9859,0.371120
0.9901,0.386368
0.9942,0.405054
0.9984,0.389827
1.0026,0.375621
1.0067,0.426246
1.0109,0.438861
1.0150,0.422106
1.0192,0.447208
1.0234,0.439012
1.0275,0.429872
1.0317,0.465952
1.0358,0.420121
1.0400,0.453675
1.0442,0.434092
1.0483,0.507932
1.0525,0.474609
1.0566,0.470018
1.0608,0.442125
1.0650,0.453036
1.0691,0.507315
1.0733,0.474117
1.0774,0.476416
1.0816,0.488623
1.0858,0.524100
1.0899,0.464796
1.0941,0.461712
1.0982,0.498130
1.1024,0.527442
1.1066,0.482829
1.1107,0.462515
1.1149,0.448091
1.1190,0.413967
1.1232,0.484578
1.1274,0.462995
1.1315,0.494778
1.1357,0.440148
1.1398,0.462660
1.1440,0.445512
1.1482,0.463165
1.1523,0.430346
1.1565,0.452539
1.1606,0.400138
1.1648,0.414444
1.1690,0.377556
1.1731,0.363678
1.1773,0.358487
1.1814,0.384586
1.1856,0.377398
1.1898,0.313908
1.1939,0.320795
1.1981,0.339650
1.2022,0.295290
1.2064,0.323573
1.2106,0.266584
1.2147,0.312301
1.2189,0.293889
1.2230,0.273116
1.2272,0.256825
1.2314,0.243266
1.2355,0.239106
1.2397,0.235793
1.2438,0.209340
1.2480,0.204875
1.2522,0.179747
1.2563,0.147193
1.2605,0.132522
1.2646,0.150513
1.2688,0.125383
1.2730,0.073238
1.2771,0.072951
1.2813,0.065653
1.2854,0.079294
1.2896,0.061437
1.2938,-0.006201
1.2979,0.023473
1.3021,-0.018170
1.3062,-0.006344
1.3104,-0.051431
1.3146,-0.050481
1.3187,-0.049639
1.3229,-0.078115
1.3270,-0.090387
1.3312,-0.147865
1.3354,-0.108554
1.3395,-0.134637
1.3437,-0.137640
1.3478,-0.140913
1.3520,-0.201715
1.3562,-0.192190
1.3603,-0.193163
1.3645,-0.227501
1.3686,-0.225720
1.3728,-0.227667
1.3770,-0.278617
1.3811,-0.263231
1.3853,-0.301030
1.3894,-0.277971
1.3936,-0.319563
1.3978,-0.294917
1.4019,-0.311764
1.4061,-0.325052
1.4102,-0.324349
1.4144,-0.355223
1.4186,-0.389123
1.4227,-0.356639
1.4269,-0.395306
1.4310,-0.367581
1.4352,-0.397683
1.4394,-0.408681
1.4435,-0.415883
1.4477,-0.410609
1.4518,-0.453834
1.4560,0.537908
1.4602,0.509045
1.4643,-0.451091
1.4685,-0.456577
1.4726,-0.417572
1.4768,-0.458719
1.4810,-0.482234
1.4851,-0.483090
1.4893,-0.476432
1.4934,-0.483796
1.4976,-0.492198
1.5018,-0.497598
1.5059,-0.496219
1.5101,-0.489801
1.5142,-0.499290
1.5184,-0.527316
1.5226,-0.484505
1.5267,-0.537142
1.5309,-0.482664
1.5350,-0.465772
1.5392,-0.456403
1.5434,-0.466014
1.5475,-0.473550
1.5517,-0.447753
1.5558,-0.476525
1.5600,-0.504173
1.5642,-0.474046
1.5683,-0.469443
1.5725,-0.433476
1.5766,-0.460676
1.5808,-0.426401
1.5850,-0.442642
1.5891,-0.454612
1.5933,-0.411349
1.5974,-0.404686
1.6016,-0.393511
1.6058,-0.356108
1.6099,-0.393921
1.6141,-0.395564
1.6182,-0.340665
1.6224,-0.336201
1.6266,-0.336857
1.6307,-0.326083
1.6349,-0.328814
1.6390,-0.288390
1.6432,-0.294301
1.6474,-0.303548
1.6515,-0.273595
1.6557,-0.243301
1.6598,-0.233881
1.6640,-0.236718
1.6682,-0.212713
1.6723,-0.202485
1.6765,-0.205852
1.6806,-0.198279
1.6848,-0.129708
1.6890,-0.167207
1.6931,-0.143976
1.6973,-0.127116
1.7014,-0.121277
1.7056,-0.107150
1.7098,-0.085226
1.7139,-0.104961
1.7181,-0.075786
1.7222,-0.049773
1.7264,-0.015242
1.7306,-0.015122
1.7347,0.004380
1.7389,0.043030
1.7430,0.036494
1.7472,0.059901
1.7514,0.065688
1.7555,0.064299
1.7597,0.110391
1.7638,0.076857
1.7680,0.114486
1.7722,0.123242
1.7763,0.155985
1.7805,0.186876
1.7846,0.195022
1.7888,0.185883
1.7930,0.183269
1.7971,0.213402
1.8013,0.233224
1.8054,0.240933
1.8096,0.263476
1.8138,0.235119
1.8179,0.260639
1.8221,0.271975
1.8262,0.299637
1.8304,0.343970
1.8346,0.349342
1.8387,0.321660
1.8429,0.333849
1.8470,0.367246
1.8512,0.355143
1.8554,0.429160
1.8595,0.350236
1.8637,0.393200
1.8678,0.412461
1.8720,0.431896
1.8762,0.421415
1.8803,0.442638
1.8845,0.434859
1.8886,0.415964
1.8928,0.477278
1.8970,0.444751
1.9011,0.486779
1.9053,0.473102
1.9094,0.437013
1.9136,0.488175
1.9178,0.501492
1.9219,0.490578
1.9261,0.481022
1.9302,0.510533
1.9344,0.452027
1.9386,0.451199
1.9427,0.483943
1.9469,0.467322
1.9510,0.470213
1.9552,0.483031
1.9594,0.496819
1.9635,0.456903
1.9677,0.474626
1.9718,0.486537
1.9760,0.484790
1.9802,0.435794
1.9843,0.462486
1.9885,0.482684
1.9926,0.447138
1.9968,0.442421
2.0010,0.456168
2.0051,0.424929
2.0093,0.409866
2.0134,0.427311
2.0176,0.419577
2.0218,0.423801
2.0259,0.401652
2.0301,0.409930
2.0342,0.418238
2.0384,0.388330
2.0426,0.406264
2.0467,0.401008
2.0509,0.383924
2.0550,0.365111
2.0592,0.330668
2.0634,0.334578
2.0675,0.324454
2.0717,0.296189
2.0758,0.271886
2.0800,0.280587
2.0842,0.305747
2.0883,0.258455
2.0925,0.228329
2.0966,0.239550
2.1008,0.185141
2.1050,0.250807
2.1091,0.216940
2.1133,0.180673
2.1174,0.181518
2.1216,0.144390
2.1258,0.148946
2.1299,0.115660
2.1341,0.101369
2.1382,0.120893
2.1424,0.085318
2.1466,0.060556
2.1507,0.049172
2.1549,0.045599
2.1590,0.030619
2.1632,-0.028813
2.1674,-0.048123
2.1715,-0.027404
2.1757,-0.044456
2.1798,-0.051722
2.1840,-0.037788
2.1882,-0.075361
2.1923,-0.105573
2.1965,-0.118090
2.2006,-0.163073
2.2048,-0.110106
2.2090,-0.135379
2.2131,-0.154231
2.2173,-0.205083
2.2214,-0.198142
2.2256,-0.241111
2.2298,-0.212344
2.2339,-0.209374
2.2381,-0.236911
2.2422,-0.236694
2.2464,-0.272260
2.2506,-0.275569
2.2547,-0.274284
2.2589,-0.306037
2.2630,-0.315376
2.2672,-0.345210
2.2714,-0.351468
2.2755,-0.392913
2.2797,-0.326893
2.2838,0.587250
2.2880,0.606168
2.2922,-0.378843
2.2963,-0.395634
2.3005,-0.388268
2.3046,-0.402930
2.3088,-0.432567
2.3130,-0.427063
2.3171,-0.437266
2.3213,-0.419510
2.3254,-0.439169
2.3296,-0.449240
2.3338,-0.502033
2.3379,-0.485274
2.3421,-0.456822
2.3462,-0.480695
2.3504,-0.463271
2.3546,-0.468000
2.3587,-0.471489
2.3629,-0.475236
2.3670,-0.488112
2.3712,-0.484245
2.3754,-0.494627
2.3795,-0.505491
2.3837,-0.513531
2.3878,-0.481850
2.3920,-0.491894
2.3962,-0.486803
2.4003,-0.509660
2.4045,-0.476590
2.4086,-0.483446
2.4128,-0.470103
2.4170,-0.503250
2.4211,-0.445077
2.4253,-0.447947
2.4294,-0.462565
2.4336,-0.391234
2.4378,-0.463294
2.4419,-0.462029
2.4461,-0.455792
2.4502,-0.415282
2.4544,-0.390768
2.4586,-0.437808
2.4627,-0.383370
2.4669,-0.430538
2.4710,-0.418101
2.4752,-0.347554
2.4794,-0.378630
2.4835,-0.372810
2.4877,-0.378339
2.4918,-0.331158
2.4960,-0.325428
2.5002,-0.296167
2.5043,-0.245714
2.5085,-0.296704
2.5126,-0.305338
2.5168,-0.257838
2.5210,-0.270133
2.5251,-0.232154
2.5293,-0.219949
2.5334,-0.238969
2.5376,-0.183481
2.5418,-0.198859
2.5459,-0.187911
2.5501,-0.155592
2.5542,-0.197936
2.5584,-0.131962
2.5626,-0.105119
2.5667,-0.098959
2.5709,-0.086767
2.5750,-0.092875
2.5792,-0.058589
2.5834,-0.060976
2.5875,-0.001737
2.5917,-0.019818
2.5958,-0.003557
2.6000,0.031105
2.6042,-0.005226
2.6083,0.023941
2.6125,0.074496
2.6166,0.066441
2.6208,0.095199
2.6250,0.083851
2.6291,0.131835
2.6333,0.139383
2.6374,0.142030
2.6416,0.124387
2.6458,0.173930
2.6499,0.167151
2.6541,0.161815
2.6582,0.212570
2.6624,0.213547
2.6666,0.250993
2.6707,0.254169
2.6749,0.268726
2.6790,0.246127
2.6832,0.298875
2.6874,0.310898
2.6915,0.284413
2.6957,0.320861
2.6998,0.336664
2.7040,0.336344
2.7082,0.354259
2.7123,0.388837
2.7165,0.361843
2.7206,0.341286
2.7248,0.404465
2.7290,0.409123
2.7331,0.443040
2.7373,0.404469
2.7414,0.388619
2.7456,0.422370
2.7498,0.435184
2.7539,0.437395
2.7581,0.452638
2.7622,0.448994
2.7664,0.445520
2.7706,0.448423
2.7747,0.484375
2.7789,0.483502
2.7830,0.482914
2.7872,0.457945
2.7914,0.462449
2.7955,0.507712
2.7997,0.458881
2.8038,0.466129
2.8080,0.528447
2.8122,0.499248
2.8163,0.506581
2.8205,0.489419
2.8246,0.492311
2.8288,0.501934
2.8330,0.491634
2.8371,0.481200
2.8413,0.469395
2.8454,0.477444
2.8496,0.489502
2.8538,0.467871
2.8579,0.455632
2.8621,0.441825
2.8662,0.481267
2.8704,0.438926
2.8746,0.448741
2.8787,0.434227
2.8829,0.447558
2.8870,0.420275
2.8912,0.416823
2.8954,0.421141
2.8995,0.386380
2.9037,0.383321
2.9078,0.386760
2.9120,0.372085
2.9162,0.372094
2.9203,0.351418
2.9245,0.382841
2.9286,0.350111
2.9328,0.351137
2.9370,0.297646
2.9411,0.305523
2.9453,0.283793
2.9494,0.255690
2.9536,0.279568
2.9578,0.259665
2.9619,0.251047
2.9661,0.195397
2.9702,0.178079
2.9744,0.217090
2.9786,0.225887
2.9827,0.143607
2.9869,0.157471
2.9910,0.124809
2.9952,0.137854
2.9994,0.131386
3.0035,0.136456
3.0077,0.094166
3.0118,0.064227
3.0160,0.095038
3.0202,0.047336
3.0243,0.022669
3.0285,0.022755
3.0326,0.001887
3.0368,0.029026
3.0410,-0.008345
3.0451,-0.060823
3.0493,-0.065251
3.0534,-0.039975
3.0576,-0.083896
3.0618,-0.120450
3.0659,-0.121571
3.0701,-0.110721
3.0742,-0.130925
3.0784,-0.133786
3.0826,-0.161731
3.0867,-0.140476
3.0909,-0.217470
3.0950,-0.229819
3.0992,-0.234143
3.1034,-0.226265
3.1075,-0.234406
3.1117,-0.275343
3.1158,-0.277376
3.1200,0.667735
3.1242,0.687264
3.1283,-0.306094
3.1325,-0.328174
3.1366,-0.344473
3.1408,-0.324183
3.1450,-0.364294
3.1491,-0.404123
3.1533,-0.387494
3.1574,-0.373264
3.1616,-0.426526
3.1658,-0.371101
3.1699,-0.402588
3.1741,-0.427213
3.1782,-0.413339
3.1824,-0.434589
3.1866,-0.432491
3.1907,-0.434533
3.1949,-0.448446
3.1990,-0.443539
3.2032,-0.455042
3.2074,-0.454454
3.2115,-0.477351
3.2157,-0.487625
3.2198,-0.500110
3.2240,-0.471090
3.2282,-0.493678
3.2323,-0.488290
3.2365,-0.461113
3.2406,-0.471516
3.2448,-0.512257
3.2490,-0.507839
3.2531,-0.487133
3.2573,-0.458751
3.2614,-0.508368
3.2656,-0.501282
3.2698,-0.491660
3.2739,-0.450357
3.2781,-0.480996
3.2822,-0.434623
3.2864,-0.486147
3.2906,-0.433066
3.2947,-0.470840
3.2989,-0.482959
3.3030,-0.426982
3.3072,-0.466560
3.3114,-0.435181
3.3155,-0.457542
3.3197,-0.413330
3.3238,-0.409286
3.3280,-0.403523
3.3322,-0.392748
3.3363,-0.411703
3.3405,-0.390608
3.3446,-0.354349
3.3488,-0.377303
3.3530,-0.352911
3.3571,-0.408519
3.3613,-0.354802
3.3654,-0.333025
3.3696,-0.347152
3.3738,-0.313993
3.3779,-0.293027
3.3821,-0.276607
3.3862,-0.284973
3.3904,-0.268015
3.3946,-0.253734
3.3987,-0.243580
3.4029,-0.220434
3.4070,-0.193762
3.4112,-0.185844
3.4154,-0.201638
3.4195,-0.186603
3.4237,-0.122045
3.4278,-0.142037
3.4320,-0.118136
3.4362,-0.123310
3.4403,-0.108027
3.4445,-0.052735
3.4486,-0.080163
3.4528,-0.022106
3.4570,-0.023200
3.4611,-0.031520
3.4653,-0.016554
3.4694,0.026678
3.4736,0.044356
3.4778,0.009977
3.4819,0.096223
3.4861,0.068729
3.4902,0.084178
3.4944,0.094574
3.4986,0.102707
3.5027,0.144665
3.5069,0.120495
3.5110,0.207462
3.5152,0.158555
3.5194,0.163322
3.5235,0.234979
3.5277,0.197644
3.5318,0.242252
3.5360,0.239244
3.5402,0.241772
3.5443,0.269030
3.5485,0.287893
3.5526,0.294430
3.5568,0.294745
3.5610,0.293225
3.5651,0.328360
3.5693,0.342129
3.5734,0.323371
3.5776,0.342980
3.5818,0.328526
3.5859,0.397838
3.5901,0.385347
3.5942,0.384983
3.5984,0.405685
3.6026,0.377713
3.6067,0.387507
3.6109,0.412308
3.6150,0.450860
3.6192,0.455720
3.6234,0.422404
3.6275,0.463151
3.6317,0.451172
3.6358,0.495986
3.6400,0.458369
3.6442,0.450834
3.6483,0.472223
3.6525,0.479876
3.6566,0.506248
3.6608,0.476299
3.6650,0.497720
3.6691,0.515164
3.6733,0.458517
3.6774,0.484929
3.6816,0.502854
3.6858,0.466911
3.6899,0.494715
3.6941,0.493927
3.6982,0.487010
3.7024,0.466530
3.7066,0.493909
3.7107,0.455220
3.7149,0.447461
3.7190,0.498975
3.7232,0.482831
3.7274,0.459233
3.7315,0.459169
3.7357,0.424925
3.7398,0.449323
3.7440,0.486974
3.7482,0.418139
3.7523,0.421743
3.7565,0.471511
3.7606,0.401681
3.7648,0.415249
3.7690,0.402694
3.7731,0.444336
3.7773,0.359046
3.7814,0.357628
3.7856,0.372784
3.7898,0.353588
3.7939,0.340921
3.7981,0.333495
3.8022,0.333984
3.8064,0.305991
3.8106,0.281752
3.8147,0.264543
3.8189,0.297113
3.8230,0.239872
3.8272,0.286570
3.8314,0.272455
3.8355,0.196420
3.8397,0.226243
3.8438,0.198438
3.8480,0.216772
3.8522,0.153250
3.8563,0.156500
3.8605,0.161338
3.8646,0.091833
3.8688,0.101931
3.8730,0.110056
3.8771,0.083974
3.8813,0.098143
3.8854,0.034756
3.8896,0.068374
3.8938,0.008951
3.8979,0.036189
3.9021,0.004955
3.9062,-0.025227
3.9104,-0.017117
3.9146,-0.077101
3.9187,-0.083922
3.9229,-0.073791
3.9270,-0.111437
3.9312,-0.076451
3.9354,-0.145733
3.9395,-0.127293
3.9437,-0.157060
3.9478,-0.137078
3.9520,0.828073
3.9562,0.765056
3.9603,-0.249881
3.9645,-0.192141
3.9686,-0.239785
3.9728,-0.274203
3.9770,-0.273245
3.9811,-0.261539
3.9853,-0.268685
3.9894,-0.339597
3.9936,-0.306639
3.9978,-0.305197
4.0019,-0.330417
4.0061,-0.326907
4.0102,-0.363581
4.0144,-0.332993
4.0186,-0.375318
4.0227,-0.361425
4.0269,-0.366777
4.0310,-0.436034
4.0352,-0.398502
4.0394,-0.412467
4.0435,-0.450350
4.0477,-0.423120
4.0518,-0.404387
4.0560,-0.428946
4.0602,-0.431038
4.0643,-0.475191
4.0685,-0.460900
4.0726,-0.472316
4.0768,-0.476177
4.0810,-0.501047
4.0851,-0.500578
4.0893,-0.492111
4.0934,-0.493218
4.0976,-0.463686
4.1018,-0.502674
4.1059,-0.473513
4.1101,-0.473841
4.1142,-0.472959
4.1184,-0.468207
4.1226,-0.480484
4.1267,-0.512408
4.1309,-0.487475
4.1350,-0.493072
4.1392,-0.472622
4.1434,-0.481892
4.1475,-0.468040
4.1517,-0.489985
4.1558,-0.486333
4.1600,-0.438763
4.1642,-0.465720
4.1683,-0.473413
4.1725,-0.453095
4.1766,-0.424654
4.1808,-0.440207
4.1850,-0.442447
4.1891,-0.450109
4.1933,-0.445822
4.1974,-0.386697
4.2016,-0.406157
4.2058,-0.423301
4.2099,-0.360472
4.2141,-0.390699
4.2182,-0.354798
4.2224,-0.372589
4.2266,-0.347509
4.2307,-0.320702
4.2349,-0.308653
4.2390,-0.361843
4.2432,-0.314635
4.2474,-0.281777
4.2515,-0.267660
4.2557,-0.232383
4.2598,-0.244444
4.2640,-0.217876
4.2682,-0.253705
4.2723,-0.195652
4.2765,-0.189258
4.2806,-0.200060
4.2848,-0.176769
4.2890,-0.140916
4.2931,-0.142745
4.2973,-0.126049
4.3014,-0.091855
4.3056,-0.098709
4.3098,-0.092239
4.3139,-0.113399
4.3181,-0.072406
4.3222,-0.066841
4.3264,-0.012813
4.3306,0.002792
4.3347,0.001141
4.3389,0.038676
4.3430,0.053322
4.3472,0.030398
4.3514,0.071745
4.3555,0.089555
4.3597,0.111663
4.3638,0.117104
4.3680,0.137426
4.3722,0.094537
4.3763,0.128102
4.3805,0.179381
4.3846,0.128196
4.3888,0.176765
4.3930,0.214490
4.3971,0.166671
4.4013,0.224623
4.4054,0.289561
4.4096,0.240603
4.4138,0.253077
4.4179,0.284662
4.4221,0.289737
4.4262,0.301262
4.4304,0.298150
4.4346,0.330103
4.4387,0.347417
4.4429,0.333333
4.4470,0.341928
4.4512,0.386773
4.4554,0.386266
4.4595,0.369981
4.4637,0.406347
4.4678,0.392860
4.4720,0.401059
4.4762,0.452057
4.4803,0.422152
4.4845,0.426970
4.4886,0.448493
4.4928,0.454752
4.4970,0.463456
4.5011,0.465732
4.5053,0.473320
4.5094,0.481974
4.5136,0.443794
4.5178,0.484349
4.5219,0.491394
4.5261,0.466183
4.5302,0.459089
4.5344,0.484769
4.5386,0.444004
4.5427,0.490666
4.5469,0.470641
4.5510,0.481039
4.5552,0.475904
4.5594,0.499116
4.5635,0.526390
4.5677,0.465264
4.5718,0.480394
4.5760,0.494930
4.5802,0.468348
4.5843,0.483934
4.5885,0.479337
4.5926,0.478166
4.5968,0.419905
4.6010,0.424754
4.6051,0.447817
4.6093,0.461056
4.6134,0.445551
4.6176,0.407083
4.6218,0.461537
4.6259,0.378910
4.6301,0.421933
4.6342,0.433560
4.6384,0.397885
4.6426,0.400783
4.6467,0.382132
4.6509,0.368776
4.6550,0.364363
4.6592,0.352900
4.6634,0.313655
4.6675,0.336979
4.6717,0.328147
4.6758,0.287828
4.6800,0.278941
4.6842,0.247360
4.6883,0.253083
4.6925,0.252061
4.6966,0.254434
4.7008,0.204500
4.7050,0.233246
4.7091,0.213252
4.7133,0.144783
4.7174,0.156183
4.7216,0.169924
4.7258,0.162375
4.7299,0.147720
4.7341,0.097959
4.7382,0.121118
4.7424,0.100868
4.7466,0.008708
4.7507,0.060187
4.7549,0.075749
4.7590,-0.004039
4.7632,0.023247
4.7674,0.033787
4.7715,-0.065621
4.7757,-0.008140
4.7798,-0.039057
4.7840,0.904970
4.7882,0.889809
4.7923,-0.123565
4.7965,-0.107375
4.8006,-0.110298
4.8048,-0.128326
4.8090,-0.162076
4.8131,-0.153450
4.8173,-0.179168
4.8214,-0.190085
4.8256,-0.161973
4.8298,-0.224261
4.8339,-0.198711
4.8381,-0.224677
4.8422,-0.251897
4.8464,-0.252246
4.8506,-0.266627
4.8547,-0.317190
4.8589,-0.285906
4.8630,-0.295784
4.8672,-0.312341
4.8714,-0.342942
4.8755,-0.362917
4.8797,-0.342815
4.8838,-0.370810
4.8880,-0.359982
4.8922,-0.406086
4.8963,-0.401217
4.9005,-0.384416
4.9046,-0.426925
4.9088,-0.407295
4.9130,-0.419607
4.9171,-0.443971
4.9213,-0.402835
4.9254,-0.419632
4.9296,-0.472866
4.9338,-0.470279
4.9379,-0.525985
4.9421,-0.483815
4.9462,-0.478579
4.9504,-0.462847
4.9546,-0.462774
4.9587,-0.486745
4.9629,-0.470906
4.9670,-0.494132
4.9712,-0.494947
4.9754,-0.480225
4.9795,-0.492313
4.9837,-0.478598
4.9878,-0.470667
4.9920,-0.450453
4.9962,-0.506319
5.0003,-0.494190
5.0045,-0.503740
5.0086,-0.487526
5.0128,-0.516763
5.0170,-0.488063
5.0211,-0.465653
5.0253,-0.448994
5.0294,-0.439102
5.0336,-0.476696
5.0378,-0.410199
5.0419,-0.456269
5.0461,-0.450904
5.0502,-0.454025
5.0544,-0.462798
5.0586,-0.408676
5.0627,-0.424198
5.0669,-0.423304
5.0710,-0.407278
5.0752,-0.396626
5.0794,-0.368866
5.0835,-0.358017
5.0877,-0.363794
5.0918,-0.356116
5.0960,-0.320413
5.1002,-0.305185
5.1043,-0.298076
5.1085,-0.312527
5.1126,-0.293006
5.1168,-0.271312
5.1210,-0.238219
5.1251,-0.283834
5.1293,-0.232165
5.1334,-0.246295
5.1376,-0.229066
5.1418,-0.221817
5.1459,-0.169114
5.1501,-0.175104
5.1542,-0.217353
5.1584,-0.139576
5.1626,-0.103214
5.1667,-0.094812
5.1709,-0.083284
5.1750,-0.092760
5.1792,-0.100191
5.1834,-0.043885
5.1875,-0.037039
5.1917,-0.016421
5.1958,0.004531
5.2000,0.004794
5.2042,-0.013027
5.2083,0.002907
5.2125,0.039806
5.2166,0.081288
5.2208,0.083063
5.2250,0.058301
5.2291,0.111400
5.2333,0.078680
5.2374,0.155836
5.2416,0.176316
5.2458,0.162122
5.2499,0.166750
5.2541,0.182895
5.2582,0.190234
5.2624,0.220465
5.2666,0.209534
5.2707,0.249040
5.2749,0.238427
5.2790,0.294608
5.2832,0.291473
5.2874,0.285920
5.2915,0.297847
5.2957,0.306662
5.2998,0.327632
5.3040,0.338783
5.3082,0.350631
5.3123,0.370757
5.3165,0.354605
5.3206,0.325255
5.3248,0.396060
5.3290,0.383523
5.3331,0.416564
5.3373,0.424523
5.3414,0.440217
5.3456,0.443716
5.3498,0.441170
5.3539,0.447076
5.3581,0.439091
5.3622,0.437522
5.3664,0.457036
5.3706,0.458851
5.3747,0.428751
5.3789,0.460259
5.3830,0.461159
5.3872,0.484349
5.3914,0.494854
5.3955,0.483847
5.3997,0.471882
5.4038,0.495958
5.4080,0.496162
5.4122,0.464569
5.4163,0.505374
5.4205,0.492741
5.4246,0.460116
5.4288,0.502636
5.4330,0.456609
5.4371,0.479744
5.4413,0.467514
5.4454,0.473506
5.4496,0.481740
5.4538,0.482483
5.4579,0.460990
5.4621,0.475222
5.4662,0.448419
5.4704,0.473907
5.4746,0.430155
5.4787,0.468231
5.4829,0.437224
5.4870,0.444904
5.4912,0.411130
5.4954,0.399041
5.4995,0.385507
5.5037,0.378791
5.5078,0.414227
5.5120,0.388747
5.5162,0.356295
5.5203,0.321594
5.5245,0.385050
5.5286,0.334468
5.5328,0.337183
5.5370,0.315121
5.5411,0.305128
5.5453,0.296178
5.5494,0.275054
5.5536,0.244983
5.5578,0.223599
5.5619,0.253637
5.5661,0.225495
5.5702,0.169463
5.5744,0.179207
5.5786,0.203086
5.5827,0.162638
5.5869,0.148483
5.5910,0.154147
5.5952,0.105840
5.5994,0.108673
5.6035,0.098380
5.6077,0.110852
5.6118,1.028275
5.6160,1.055430
5.6202,0.059302
5.6243,0.007431
5.6285,0.047180
5.6326,-0.003756
5.6368,-0.018695
5.6410,-0.040488
5.6451,-0.072995
5.6493,-0.070808
5.6534,-0.070210
5.6576,-0.091480
5.6618,-0.075775
5.6659,-0.090908
5.6701,-0.127555
5.6742,-0.116682
5.6784,-0.144317
5.6826,-0.210021
5.6867,-0.218574
5.6909,-0.205273
5.6950,-0.215086
5.6992,-0.219114
5.7034,-0.185399
5.7075,-0.280886
5.7117,-0.242028
5.7158,-0.256150
5.7200,-0.297309
5.7242,-0.308325
5.7283,-0.297986
5.7325,-0.321932
5.7366,-0.280645
5.7408,-0.348137
5.7450,-0.369155
5.7491,-0.387675
5.7533,-0.355941
5.7574,-0.407307
5.7616,-0.378258
5.7658,-0.413308
5.7699,-0.418118
5.7741,-0.413969
5.7782,-0.424488
5.7824,-0.468979
5.7866,-0.430384
5.7907,-0.454609
5.7949,-0.472470
5.7990,-0.425739
5.8032,-0.462736
5.8074,-0.436552
5.8115,-0.466378
5.8157,-0.481993
5.8198,-0.448147
5.8240,-0.473263
5.8282,-0.488443
5.8323,-0.525381
5.8365,-0.486744
5.8406,-0.468663
5.8448,-0.494496
5.8490,-0.519115
5.8531,-0.475848
5.8573,-0.509656
5.8614,-0.459324
5.8656,-0.525551
5.8698,-0.482260
5.8739,-0.490832
5.8781,-0.511762
5.8822,-0.483578
5.8864,-0.487183
5.8906,-0.453821
5.8947,-0.443806
5.8989,-0.447562
5.9030,-0.442702
5.9072,-0.433221
5.9114,-0.435639
5.9155,-0.417234
5.9197,-0.414851
5.9238,-0.402882
5.9280,-0.382374
5.9322,-0.393360
5.9363,-0.412324
5.9405,-0.401316
5.9446,-0.380893
5.9488,-0.398638
5.9530,-0.354390
5.9571,-0.342128
5.9613,-0.350630
5.9654,-0.302128
5.9696,-0.326233
5.9738,-0.302019
5.9779,-0.286052
5.9821,-0.278987
5.9862,-0.254655
5.9904,-0.204225
5.9946,-0.224944
5.9987,-0.271827
6.0029,-0.201735
6.0070,-0.198840
6.0112,-0.182609
6.0154,-0.202110
6.0195,-0.171685
6.0237,-0.145724
6.0278,-0.177233
6.0320,-0.106467
6.0362,-0.105368
6.0403,-0.078993
6.0445,-0.046257
6.0486,-0.020942
6.0528,-0.013852
6.0570,-0.046270
6.0611,-0.063976
6.0653,-0.010472
6.0694,0.044765
6.0736,0.017713
6.0778,0.042891
6.0819,0.043074
6.0861,0.049695
6.0902,0.097251
6.0944,0.077416
6.0986,0.137114
6.1027,0.128056
6.1069,0.163535
6.1110,0.169805
6.1152,0.183565
6.1194,0.219306
6.1235,0.193045
6.1277,0.181098
6.1318,0.227156
6.1360,0.203780
6.1402,0.279936
6.1443,0.265520
6.1485,0.279767
6.1526,0.279696
6.1568,0.292178
6.1610,0.278990
6.1651,0.317637
6.1693,0.338081
6.1734,0.338582
6.1776,0.345112
6.1818,0.356523
6.1859,0.416550
6.1901,0.334997
6.1942,0.372226
6.1984,0.395330
6.2026,0.426234
6.2067,0.459842
6.2109,0.437517
6.2150,0.436603
6.2192,0.425357
6.2234,0.439521
6.2275,0.447823
6.2317,0.491334
6.2358,0.493411
6.2400,0.516143
6.2442,0.445162
6.2483,0.492758
6.2525,0.466644
6.2566,0.484785
6.2608,0.490759
6.2650,0.514089
6.2691,0.463860
6.2733,0.469755
6.2774,0.499869
6.2816,0.481638
6.2858,0.460442
6.2899,0.505058
6.2941,0.490140
6.2982,0.492122
6.3024,0.509728
6.3066,0.510312
6.3107,0.485552
6.3149,0.449424
6.3190,0.491321
6.3232,0.478785
6.3274,0.495910
6.3315,0.486421
6.3357,0.457716
6.3398,0.441868
6.3440,0.472659
6.3482,0.440010
6.3523,0.420571
6.3565,0.441341
6.3606,0.434322
6.3648,0.438331
6.3690,0.390856
6.3731,0.371808
6.3773,0.373612
6.3814,0.340211
6.3856,0.320111
6.3898,0.350556
6.3939,0.304875
6.3981,0.331817
6.4022,0.333128
6.4064,0.332656
6.4106,0.304149
6.4147,0.266028
6.4189,0.234147
6.4230,0.237283
6.4272,0.249109
6.4314,0.268702
6.4355,0.216093
6.4397,0.203653
6.4438,1.185200
6.4480,1.151762
6.4522,0.177169
6.4563,0.143648
6.4605,0.184618
6.4646,0.144923
6.4688,0.112126
6.4730,0.102856
6.4771,0.093004
6.4813,0.079299
6.4854,0.008038
6.4896,0.043190
6.4938,0.020381
6.4979,-0.000190
6.5021,-0.037922
6.5062,-0.008618
6.5104,-0.044375
6.5146,-0.055570
6.5187,-0.068468
6.5229,-0.097959
6.5270,-0.103444
6.5312,-0.137266
6.5354,-0.145451
6.5395,-0.161047
6.5437,-0.131161
6.5478,-0.164228
6.5520,-0.206830
6.5562,-0.184225
6.5603,-0.209442
6.5645,-0.213240
6.5686,-0.255636
6.5728,-0.222421
6.5770,-0.274260
6.5811,-0.228899
6.5853,-0.304336
6.5894,-0.252693
6.5936,-0.308968
6.5978,-0.326263
6.6019,-0.338344
6.6061,-0.324704
6.6102,-0.357521
6.6144,-0.352967
6.6186,-0.369625
6.6227,-0.374764
6.6269,-0.402516
6.6310,-0.397924
6.6352,-0.396539
6.6394,-0.387068
6.6435,-0.412221
6.6477,-0.414066
6.6518,-0.445051
6.6560,-0.466795
6.6602,-0.443784
6.6643,-0.458889
6.6685,-0.486394
6.6726,-0.439664
6.6768,-0.441923
6.6810,-0.500578
6.6851,-0.486155
6.6893,-0.443866
6.6934,-0.458813
6.6976,-0.475615
6.7018,-0.475691
6.7059,-0.492674
6.7101,-0.511245
6.7142,-0.444864
6.7184,-0.472868
6.7226,-0.450466
6.7267,-0.485208
6.7309,-0.489712
6.7350,-0.477304
6.7392,-0.476505
6.7434,-0.485681
6.7475,-0.472299
6.7517,-0.521414
6.7558,-0.466630
6.7600,-0.460565
6.7642,-0.448804
6.7683,-0.452277
6.7725,-0.437314
6.7766,-0.487527
6.7808,-0.431107
6.7850,-0.420425
6.7891,-0.428648
6.7933,-0.395439
6.7974,-0.397191
6.8016,-0.407299
6.8058,-0.403869
6.8099,-0.381938
6.8141,-0.378775
6.8182,-0.320864
6.8224,-0.339046
6.8266,-0.314250
6.8307,-0.346479
6.8349,-0.314654
6.8390,-0.273418
6.8432,-0.330766
6.8474,-0.286203
6.8515,-0.278046
6.8557,-0.269318
6.8598,-0.238358
6.8640,-0.233337
6.8682,-0.222041
6.8723,-0.215816
6.8765,-0.229858
6.8806,-0.172803
6.8848,-0.167261
6.8890,-0.194884
6.8931,-0.148142
6.8973,-0.114641
6.9014,-0.131575
6.9056,-0.092688
6.9098,-0.094506
6.9139,-0.069349
6.9181,-0.069303
6.9222,-0.036840
6.9264,0.011871
6.9306,-0.024923
6.9347,0.013723
6.9389,-0.003211
6.9430,0.017638
6.9472,0.075456
6.9514,0.063504
6.9555,0.091095
6.9597,0.096394
6.9638,0.108528
6.9680,0.099775
6.9722,0.172299
6.9763,0.163288
6.9805,0.203007
6.9846,0.172191
6.9888,0.195677
6.9930,0.218937
6.9971,0.228380
7.0013,0.205756
7.0054,0.244028
7.0096,0.247852
7.0138,0.291037
7.0179,0.289159
7.0221,0.296515
7.0262,0.310962
7.0304,0.345234
7.0346,0.333375
7.0387,0.344556
7.0429,0.323856
7.0470,0.363184
7.0512,0.376740
7.0554,0.356939
7.0595,0.370493
7.0637,0.394035
7.0678,0.437896
7.0720,0.403809
7.0762,0.400243
7.0803,0.429902
7.0845,0.467464
7.0886,0.477985
7.0928,0.429589
7.0970,0.454674
7.1011,0.446121
7.1053,0.497712
7.1094,0.516166
7.1136,0.464058
7.1178,0.516325
7.1219,0.472079
7.1261,0.479957
7.1302,0.513630
7.1344,0.490349
7.1386,0.511660
7.1427,0.497047
7.1469,0.466069
7.1510,0.483960
7.1552,0.463181
7.1594,0.484849
7.1635,0.478293
7.1677,0.488730
7.1718,0.492040
7.1760,0.522779
7.1802,0.490327
7.1843,0.488280
7.1885,0.486249
7.1926,0.484726
7.1968,0.480956
7.2010,0.479471
7.2051,0.453825
7.2093,0.441606
7.2134,0.432829
7.2176,0.431715
7.2218,0.408396
7.2259,0.415433
7.2301,0.428102
7.2342,0.424314
7.2384,0.380541
7.2426,0.370668
7.2467,0.375113
7.2509,0.364723
7.2550,0.340276
7.2592,0.347424
7.2634,0.344055
7.2675,0.361750
7.2717,0.319625
7.2758,1.279384
7.2800,1.284027
7.2842,0.295585
7.2883,0.247841
7.2925,0.248847
7.2966,0.232124
7.3008,0.216723
7.3050,0.209490
7.3091,0.182771
7.3133,0.202824
7.3174,0.145503
7.3216,0.167153
7.3258,0.118107
7.3299,0.117423
7.3341,0.084642
7.3382,0.128471
7.3424,0.068452
7.3466,0.054897
7.3507,0.060331
7.3549,0.027850
7.3590,0.008895
7.3632,-0.030661
7.3674,0.013275
7.3715,-0.042846
7.3757,-0.000140
7.3798,-0.016672
7.3840,-0.046541
7.3882,-0.064651
7.3923,-0.127826
7.3965,-0.105031
7.4006,-0.104701
7.4048,-0.097993
7.4090,-0.154062
7.4131,-0.169830
7.4173,-0.191012
7.4214,-0.188885
7.4256,-0.205879
7.4298,-0.244616
7.4339,-0.204742
7.4381,-0.273408
7.4422,-0.284602
7.4464,-0.273917
7.4506,-0.269807
7.4547,-0.300412
7.4589,-0.316251
7.4630,-0.299845
7.4672,-0.302911
7.4714,-0.312107
7.4755,-0.348277
7.4797,-0.358311
7.4838,-0.351167
7.4880,-0.375646
7.4922,-0.367904
7.4963,-0.414813
7.5005,-0.403870
7.5046,-0.426546
7.5088,-0.409590
7.5130,-0.450029
7.5171,-0.440223
7.5213,-0.458702
7.5254,-0.446324
7.5296,-0.476707
7.5338,-0.487545
7.5379,-0.486160
7.5421,-0.454738
7.5462,-0.454505
7.5504,-0.481724
7.5546,-0.487377
7.5587,-0.520971
7.5629,-0.469462
7.5670,-0.471437
7.5712,-0.492721
7.5754,-0.523088
7.5795,-0.485974
7.5837,-0.479424
7.5878,-0.504215
7.5920,-0.483668
7.5962,-0.474678
7.6003,-0.493634
7.6045,-0.456223
7.6086,-0.485466
7.6128,-0.496099
7.6170,-0.469797
7.6211,-0.473910
7.6253,-0.441477
7.6294,-0.490938
7.6336,-0.470972
7.6378,-0.404703
7.6419,-0.451084
7.6461,-0.440125
7.6502,-0.470309
7.6544,-0.462662
7.6586,-0.387263
7.6627,-0.452442
7.6669,-0.371766
7.6710,-0.369134
7.6752,-0.352364
7.6794,-0.370310
7.6835,-0.361031
7.6877,-0.339186
7.6918,-0.329914
7.6960,-0.349921
7.7002,-0.366008
7.7043,-0.325178
7.7085,-0.333733
7.7126,-0.297419
7.7168,-0.295054
7.7210,-0.283494
7.7251,-0.270974
7.7293,-0.241636
7.7334,-0.229853
7.7376,-0.189056
7.7418,-0.237396
7.7459,-0.197991
7.7501,-0.138226
7.7542,-0.153977
7.7584,-0.140318
7.7626,-0.129668
7.7667,-0.132953
7.7709,-0.115638
7.7750,-0.104409
7.7792,-0.083129
7.7834,-0.058958
7.7875,-0.040119
7.7917,-0.059175
7.7958,-0.062575
7.8000,-0.006283
7.8042,0.028085
7.8083,0.041912
7.8125,0.012050
7.8166,0.019008
7.8208,0.033922
7.8250,0.098368
7.8291,0.116513
7.8333,0.156991
7.8374,0.152914
7.8416,0.161235
7.8458,0.142134
7.8499,0.172446
7.8541,0.215880
7.8582,0.198832
7.8624,0.203597
7.8666,0.219624
7.8707,0.206801
7.8749,0.279822
7.8790,0.251567
7.8832,0.301842
7.8874,0.304975
7.8915,0.272051
7.8957,0.316249
7.8998,0.306587
7.9040,0.351247
7.9082,0.343484
7.9123,0.375060
7.9165,0.356695
7.9206,0.401364
7.9248,0.383865
7.9290,0.372607
7.9331,0.417739
7.9373,0.413205
7.9414,0.427657
7.9456,0.452089
7.9498,0.439313
7.9539,0.452885
7.9581,0.454710
7.9622,0.463677
7.9664,0.419876
7.9706,0.479726
7.9747,0.505261
7.9789,0.488162
7.9830,0.479272
7.9872,0.474829
7.9914,0.508515
7.9955,0.501093
7.9997,0.488073
8.0038,0.490682
8.0080,0.504811
8.0122,0.511616
8.0163,0.480531
8.0205,0.524393
8.0246,0.498242
8.0288,0.486781
8.0330,0.467281
8.0371,0.460247
8.0413,0.478201
8.0454,0.474828
8.0496,0.485996
8.0538,0.475674
8.0579,0.476324
8.0621,0.445085
8.0662,0.448383
8.0704,0.409777
8.0746,0.421050
8.0787,0.407462
8.0829,0.423911
8.0870,0.430419
8.0912,0.440567
8.0954,0.410248
8.0995,0.435869
8.1037,0.400247
8.1078,1.363459
8.1120,1.397759
8.1162,0.395277
8.1203,0.347834
8.1245,0.355122
8.1286,0.334265
8.1328,0.327002
8.1370,0.340408
8.1411,0.314374
8.1453,0.280628
8.1494,0.301339
8.1536,0.260218
8.1578,0.274191
8.1619,0.251249
8.1661,0.248958
8.1702,0.212236
8.1744,0.197879
8.1786,0.185528
8.1827,0.173248
8.1869,0.164049
8.1910,0.160628
8.1952,0.136991
8.1994,0.148056
8.2035,0.095534
8.2077,0.061704
8.2118,0.085614
8.2160,0.033612
8.2202,0.028279
8.2243,0.044270
8.2285,-0.003039
8.2326,-0.038135
8.2368,-0.026588
8.2410,-0.036244
8.2451,-0.066737
8.2493,-0.035106
8.2534,-0.087863
8.2576,-0.104307
8.2618,-0.079452
8.2659,-0.109851
8.2701,-0.147460
8.2742,-0.142931
8.2784,-0.157895
8.2826,-0.170040
8.2867,-0.204060
8.2909,-0.209733
8.2950,-0.222554
8.2992,-0.223579
8.3034,-0.241929
8.3075,-0.237710
8.3117,-0.281392
8.3158,-0.324478
8.3200,-0.289893
8.3242,-0.301290
8.3283,-0.326808
8.3325,-0.300925
8.3366,-0.332074
8.3408,-0.318287
8.3450,-0.354470
8.3491,-0.351906
8.3533,-0.366136
8.3574,-0.356642
8.3616,-0.373074
8.3658,-0.397524
8.3699,-0.382111
8.3741,-0.401873
8.3782,-0.423745
8.3824,-0.452638
8.3866,-0.437515
8.3907,-0.408774
8.3949,-0.460835
8.3990,-0.470051
8.4032,-0.435816
8.4074,-0.485367
8.4115,-0.461169
8.4157,-0.456285
8.4198,-0.482992
8.4240,-0.467292
8.4282,-0.496336
8.4323,-0.506121
8.4365,-0.496840
8.4406,-0.526406
8.4448,-0.483997
8.4490,-0.491779
8.4531,-0.484756
8.4573,-0.461046
8.4614,-0.481585
8.4656,-0.474030
8.4698,-0.503860
8.4739,-0.477150
8.4781,-0.478387
8.4822,-0.474901
8.4864,-0.486608
8.4906,-0.447910
8.4947,-0.473280
8.4989,-0.452806
8.5030,-0.458095
8.5072,-0.462911
8.5114,-0.469075
8.5155,-0.389114
8.5197,-0.451185
8.5238,-0.451473
8.5280,-0.433531
8.5322,-0.396519
8.5363,-0.386711
8.5405,-0.402981
8.5446,-0.373170
8.5488,-0.386208
8.5530,-0.346269
8.5571,-0.325468
8.5613,-0.361875
8.5654,-0.368619
8.5696,-0.301669
8.5738,-0.313529
8.5779,-0.289509
8.5821,-0.326338
8.5862,-0.280069
8.5904,-0.251178
8.5946,-0.244632
8.5987,-0.218169
8.6029,-0.221415
8.6070,-0.199052
8.6112,-0.185315
8.6154,-0.185092
8.6195,-0.149268
8.6237,-0.170005
8.6278,-0.136203
8.6320,-0.115814
8.6362,-0.070503
8.6403,-0.118104
8.6445,-0.077046
8.6486,-0.066054
8.6528,-0.025483
8.6570,-0.028514
8.6611,-0.028538
8.6653,-0.009978
8.6694,0.062168
8.6736,0.017098
8.6778,0.050334
8.6819,0.111493
8.6861,0.044816
8.6902,0.090201
8.6944,0.126600
8.6986,0.065723
8.7027,0.132494
8.7069,0.160682
8.7110,0.161439
8.7152,0.155931
8.7194,0.186300
8.7235,0.183450
8.7277,0.207734
8.7318,0.230189
8.7360,0.251962
8.7402,0.239688
8.7443,0.216263
8.7485,0.276352
8.7526,0.259414
8.7568,0.317570
8.7610,0.325022
8.7651,0.346603
8.7693,0.330528
8.7734,0.324460
8.7776,0.377801
8.7818,0.327452
8.7859,0.356628
8.7901,0.413587
8.7942,0.347547
8.7984,0.420866
8.8026,0.417643
8.8067,0.409656
8.8109,0.431717
8.8150,0.390876
8.8192,0.421356
8.8234,0.429464
8.8275,0.459882
8.8317,0.458399
8.8358,0.482422
8.8400,0.493462
8.8442,0.425575
8.8483,0.468981
8.8525,0.442038
8.8566,0.466428
8.8608,0.510875
8.8650,0.522526
8.8691,0.478986
8.8733,0.536839
8.8774,0.500635
8.8816,0.507248
8.8858,0.500755
8.8899,0.520128
8.8941,0.502319
8.8982,0.501436
8.9024,0.502423
8.9066,0.513176
8.9107,0.474907
8.9149,0.455846
8.9190,0.467677
8.9232,0.458522
8.9274,0.452217
8.9315,0.457535
8.9357,0.442215
8.9398,0.443752
8.9440,1.449179
8.9482,1.424560
8.9523,0.441440
8.9565,0.414907
8.9606,0.392996
8.9648,0.421214
8.9690,0.403697
8.9731,0.361069
8.9773,0.387735
8.9814,0.369272
8.9856,0.354134
8.9898,0.337154
8.9939,0.332009
8.9981,0.330080
9.0022,0.330303
9.0064,0.318813
9.0106,0.249233
9.0147,0.260181
9.0189,0.263305
9.0230,0.288886
9.0272,0.265164
9.0314,0.249523
9.0355,0.225456
9.0397,0.208416
9.0438,0.213805
9.0480,0.180738
9.0522,0.203962
9.0563,0.117840
9.0605,0.160352
9.0646,0.110403
9.0688,0.097010
9.0730,0.087315
9.0771,0.064311
9.0813,0.104182
9.0854,0.034262
9.0896,0.028275
9.0938,0.027191
9.0979,-0.013228
9.1021,-0.009369
9.1062,-0.022442
9.1104,-0.068925
9.1146,-0.061470
9.1187,-0.060434
9.1229,-0.092009
9.1270,-0.091824
9.1312,-0.101754
9.1354,-0.093552
9.1395,-0.155751
9.1437,-0.150185
9.1478,-0.133253
9.1520,-0.186601
9.1562,-0.203669
9.1603,-0.210472
9.1645,-0.209547
9.1686,-0.217940
9.1728,-0.258067
9.1770,-0.270510
9.1811,-0.296982
9.1853,-0.261755
9.1894,-0.291633
9.1936,-0.298374
9.1978,-0.291987
9.2019,-0.335569
9.2061,-0.286965
9.2102,-0.312804
9.2144,-0.372488
9.2186,-0.378384
9.2227,-0.355676
9.2269,-0.397001
9.2310,-0.407892
9.2352,-0.401255
9.2394,-0.423218
9.2435,-0.415561
9.2477,-0.411701
9.2518,-0.432238
9.2560,-0.424726
9.2602,-0.423566
9.2643,-0.495672
9.2685,-0.464002
9.2726,-0.433296
9.2768,-0.514395
9.2810,-0.481388
9.2851,-0.501651
9.2893,-0.452780
9.2934,-0.506828
9.2976,-0.515449
9.3018,-0.503363
9.3059,-0.470749
9.3101,-0.489442
9.3142,-0.498952
9.3184,-0.522008
9.3226,-0.484404
9.3267,-0.469341
9.3309,-0.502668
9.3350,-0.522187
9.3392,-0.499509
9.3434,-0.472670
9.3475,-0.492658
9.3517,-0.511246
9.3558,-0.478334
9.3600,-0.459026
9.3642,-0.412137
9.3683,-0.455746
9.3725,-0.447043
9.3766,-0.478229
9.3808,-0.428092
9.3850,-0.432763
9.3891,-0.405477
9.3933,-0.411544
9.3974,-0.386318
9.4016,-0.391831
9.4058,-0.383619
9.4099,-0.376192
9.4141,-0.395516
9.4182,-0.367458
9.4224,-0.367693
9.4266,-0.367310
9.4307,-0.337922
9.4349,-0.319057
9.4390,-0.324124
9.4432,-0.287486
9.4474,-0.323329
9.4515,-0.254998
9.4557,-0.254432
9.4598,-0.256275
9.4640,-0.204481
9.4682,-0.193695
9.4723,-0.179163
9.4765,-0.165395
9.4806,-0.162685
9.4848,-0.164997
9.4890,-0.156285
9.4931,-0.139367
9.4973,-0.127832
9.5014,-0.076738
9.5056,-0.088862
9.5098,-0.083195
9.5139,-0.089642
9.5181,-0.041244
9.5222,-0.021829
9.5264,-0.006225
9.5306,-0.002826
9.5347,-0.007672
9.5389,0.018419
9.5430,0.006034
9.5472,0.094884
9.5514,0.080067
9.5555,0.108942
9.5597,0.106108
9.5638,0.122442
9.5680,0.137972
9.5722,0.133536
9.5763,0.122624
9.5805,0.153137
9.5846,0.196140
9.5888,0.189866
9.5930,0.181404
9.5971,0.227875
9.6013,0.230188
9.6054,0.223492
9.6096,0.267002
9.6138,0.262145
9.6179,0.298176
9.6221,0.316059
9.6262,0.334239
9.6304,0.324803
9.6346,0.326883
9.6387,0.348964
9.6429,0.339092
9.6470,0.352033
9.6512,0.371229
9.6554,0.366508
9.6595,0.388741
9.6637,0.440573
9.6678,0.368280
9.6720,0.422282
9.6762,0.403520
9.6803,0.428719
9.6845,0.436267
9.6886,0.467013
9.6928,0.443871
9.6970,0.431311
9.7011,0.449422
9.7053,0.495370
9.7094,0.502929
9.7136,0.481253
9.7178,0.493406
9.7219,0.475637
9.7261,0.470386
9.7302,0.504284
9.7344,0.493360
9.7386,0.505168
9.7427,0.495508
9.7469,0.470671
9.7510,0.459090
9.7552,0.451885
9.7594,0.501539
9.7635,0.472056
9.7677,0.474659
9.7718,1.455846
9.7760,1.490797
9.7802,0.487734
9.7843,0.505602
9.7885,0.473852
9.7926,0.449442
9.7968,0.457456
9.8010,0.459524
9.8051,0.428198
9.8093,0.441012
9.8134,0.433471
9.8176,0.469168
9.8218,0.414806
9.8259,0.417944
9.8301,0.424404
9.8342,0.394739
9.8384,0.399763
9.8426,0.380291
9.8467,0.357974
9.8509,0.361168
9.8550,0.338586
9.8592,0.345491
9.8634,0.344918
9.8675,0.322685
9.8717,0.328349
9.8758,0.287901
9.8800,0.300130
9.8842,0.257338
9.8883,0.295556
9.8925,0.266494
9.8966,0.195104
9.9008,0.168679
9.9050,0.232940
9.9091,0.210252
9.9133,0.164881
9.9174,0.145042
9.9216,0.176321
9.9258,0.151326
9.9299,0.146771
9.9341,0.108838
9.9382,0.094196
9.9424,0.066614
9.9466,0.058180
9.9507,0.061712
9.9549,0.059448
9.9590,0.023109
9.9632,0.008921
9.9674,-0.031090
9.9715,0.002361
9.9757,-0.035224
9.9798,-0.047414
9.9840,-0.081849
9.9882,-0.095061
9.9923,-0.102330
9.9965,-0.103973
10.0006,-0.120267
10.0048,-0.135747
10.0090,-0.152123
10.0131,-0.120330
10.0173,-0.160462
10.0214,-0.164243
10.0256,-0.233894
10.0298,-0.203217
10.0339,-0.225478
10.0381,-0.267905
10.0422,-0.254776
10.0464,-0.248380
10.0506,-0.284767
10.0547,-0.304409
10.0589,-0.263948
10.0630,-0.313045
10.0672,-0.358070
10.0714,-0.358297
10.0755,-0.344989
10.0797,-0.359586
10.0838,-0.363963
10.0880,-0.413964
10.0922,-0.343330
10.0963,-0.451661
10.1005,-0.413261
10.1046,-0.383362
10.1088,-0.397337
10.1130,-0.415652
10.1171,-0.417607
10.1213,-0.435759
10.1254,-0.420723
10.1296,-0.471332
10.1338,-0.493569
10.1379,-0.455731
10.1421,-0.460867
10.1462,-0.464198
10.1504,-0.463860
10.1546,-0.493379
10.1587,-0.489929
10.1629,-0.458291
10.1670,-0.508578
10.1712,-0.465995
10.1754,-0.509162
10.1795,-0.511380
10.1837,-0.474527
10.1878,-0.477096
10.1920,-0.497513
10.1962,-0.463508
10.2003,-0.476643
10.2045,-0.473033
10.2086,-0.479815
10.2128,-0.440111
10.2170,-0.453450
10.2211,-0.493858
10.2253,-0.454768
10.2294,-0.445044
10.2336,-0.423859
10.2378,-0.452441
10.2419,-0.458590
10.2461,-0.469604
10.2502,-0.435740
10.2544,-0.403111
10.2586,-0.409731
10.2627,-0.386880
10.2669,-0.414215
10.2710,-0.398190
10.2752,-0.391980
10.2794,-0.412019
10.2835,-0.374336
10.2877,-0.427172
10.2918,-0.349068
10.2960,-0.352538
10.3002,-0.299658
10.3043,-0.327094
10.3085,-0.321462
10.3126,-0.277958
10.3168,-0.278065
10.3210,-0.276290
10.3251,-0.212897
10.3293,-0.246127
10.3334,-0.226679
10.3376,-0.217196
10.3418,-0.174294
10.3459,-0.179997
10.3501,-0.184762
10.3542,-0.143634
10.3584,-0.140317
10.3626,-0.141887
10.3667,-0.111505
10.3709,-0.076434
10.3750,-0.095352
10.3792,-0.064509
10.3834,-0.055661
10.3875,-0.028767
10.3917,-0.054909
10.3958,-0.024919
