time,ecg
0.0,0.0076
0.0028,-0.002
0.0056,0.0149
0.0083,0.0056
0.0111,-0.0259
0.0139,0.0148
0.0167,0.0063
0.0194,0.01
0.0222,-0.0233
0.025,-0.0078
0.0278,-0.0082
0.0306,0.0198
0.0333,-0.0013
0.0361,-0.0173
0.0389,0.0141
0.0417,-0.0039
0.0444,0.0113
0.0472,0.0018
0.05,-0.0241
0.0528,0.0131
0.0556,0.0084
0.0583,-0.0007
0.0611,0.0021
0.0639,0.0042
0.0667,0.0017
0.0694,0.0008
0.0722,0.0137
0.075,-0.0062
0.0778,-0.0072
0.0806,0.0039
0.0833,0.0206
0.0861,0.0129
0.0889,0.0381
0.0917,0.0359
0.0944,0.0378
0.0972,0.0403
0.1,0.0442
0.1028,0.0527
0.1056,0.0578
0.1083,0.0614
0.1111,0.0534
0.1139,0.0442
0.1167,0.063
0.1194,0.0775
0.1222,0.0595
0.125,0.0808
0.1278,0.0809
0.1306,0.0931
0.1333,0.087
0.1361,0.0802
0.1389,0.0862
0.1417,0.0606
0.1444,0.0727
0.1472,0.0811
0.15,0.0878
0.1528,0.0634
0.1556,0.0582
0.1583,0.0717
0.1611,0.0671
0.1639,0.0753
0.1667,0.0783
0.1694,0.0584
0.1722,0.0663
0.175,0.0688
0.1778,0.07
0.1806,0.055
0.1833,0.0438
0.1861,0.0316
0.1889,0.0381
0.1917,0.0199
0.1944,0.0318
0.1972,0.0213
0.2,0.0278
0.2028,0.0021
0.2056,0.011
0.2083,-0.0021
0.2111,-0.0108
0.2139,-0.0019
0.2167,-0.0089
0.2194,0.0062
0.2222,-0.0037
0.225,-0.0111
0.2278,-0.0036
0.2306,0.0001
0.2333,-0.0045
0.2361,-0.001
0.2389,0.0128
0.2417,-0.0031
0.2444,-0.0049
0.2472,0.0162
0.25,0.0186
0.2528,0.0098
0.2556,0.0168
0.2583,0.0121
0.2611,0.0189
0.2639,-0.0028
0.2667,0.0027
0.2694,-0.0071
0.2722,-0.0292
0.275,-0.0245
0.2778,-0.0215
0.2806,-0.0281
0.2833,-0.0186
0.2861,-0.0108
0.2889,0.0803
0.2917,0.2189
0.2944,0.3358
0.2972,0.4522
0.3,0.537
0.3028,0.6235
0.3056,0.6737
0.3083,0.7205
0.3111,0.7838
0.3139,0.8019
0.3167,0.8161
0.3194,0.7776
0.3222,0.738
0.325,0.7059
0.3278,0.6498
0.3306,0.5432
0.3333,0.4463
0.3361,0.3526
0.3389,0.2417
0.3417,0.1127
0.3444,0.017
0.3472,-0.017
0.35,-0.0429
0.3528,-0.0815
0.3556,-0.1079
0.3583,-0.1193
0.3611,-0.1114
0.3639,-0.1293
0.3667,-0.1044
0.3694,-0.0993
0.3722,-0.0743
0.375,-0.0687
0.3778,-0.0602
0.3806,-0.0214
0.3833,-0.0186
0.3861,-0.0165
0.3889,-0.0195
0.3917,-0.0132
0.3944,-0.0141
0.3972,0.0027
0.4,-0.0055
0.4028,0.0084
0.4056,-0.0056
0.4083,-0.0035
0.4111,0.0091
0.4139,-0.0011
0.4167,-0.0051
0.4194,-0.0073
0.4222,0.0035
0.425,-0.0192
0.4278,0.0108
0.4306,-0.004
0.4333,-0.0027
0.4361,-0.0044
0.4389,0.0127
0.4417,0.0033
0.4444,0.0081
0.4472,0.0148
0.45,-0.0101
0.4528,-0.0019
0.4556,0.0109
0.4583,0.0014
0.4611,0.001
0.4639,-0.0028
0.4667,-0.0128
0.4694,0.0134
0.4722,0.002
0.475,0.0148
0.4778,0.0134
0.4806,0.0077
0.4833,-0.0053
0.4861,-0.0018
0.4889,0.0169
0.4917,0.0311
0.4944,0.042
0.4972,0.025
0.5,0.0524
0.5028,0.0385
0.5056,0.0568
0.5083,0.0682
0.5111,0.0855
0.5139,0.0994
0.5167,0.1138
0.5194,0.104
0.5222,0.1036
0.525,0.0919
0.5278,0.1232
0.5306,0.1101
0.5333,0.1174
0.5361,0.0957
0.5389,0.1031
0.5417,0.1292
0.5444,0.1386
0.5472,0.1226
0.55,0.1316
0.5528,0.1469
0.5556,0.1554
0.5583,0.158
0.5611,0.1596
0.5639,0.1367
0.5667,0.1375
0.5694,0.1554
0.5722,0.1439
0.575,0.1561
0.5778,0.1615
0.5806,0.1588
0.5833,0.1423
0.5861,0.1424
0.5889,0.1698
0.5917,0.1462
0.5944,0.1292
0.5972,0.1406
0.6,0.148
0.6028,0.1229
0.6056,0.1352
0.6083,0.1371
0.6111,0.1029
0.6139,0.119
0.6167,0.1134
0.6194,0.0964
0.6222,0.0989
0.625,0.1127
0.6278,0.1027
0.6306,0.0878
0.6333,0.0781
0.6361,0.0777
0.6389,0.0808
0.6417,0.0573
0.6444,0.0785
0.6472,0.0574
0.65,0.048
0.6528,0.0326
0.6556,0.0354
0.6583,0.0244
0.6611,0.0253
0.6639,0.0028
0.6667,-0.0073
0.6694,-0.0068
0.6722,-0.0071
0.675,-0.0037
0.6778,0.0165
0.6806,-0.0094
0.6833,-0.0057
0.6861,0.0058
0.6889,-0.0003
0.6917,0.0062
0.6944,-0.0138
0.6972,0.0141
0.7,0.0084
0.7028,-0.0002
0.7056,-0.0122
0.7083,-0.0084
0.7111,0.0032
0.7139,-0.0131
0.7167,0.0025
0.7194,-0.0262
0.7222,-0.0002
0.725,0.0194
0.7278,-0.0044
0.7306,0.0002
0.7333,0.0027
0.7361,0.004
0.7389,-0.0128
0.7417,0.0092
0.7444,0.0022
0.7472,0.0217
0.75,0.0069
0.7528,-0.0002
0.7556,0.0027
0.7583,0.0219
0.7611,-0.0168
0.7639,-0.0097
0.7667,-0.0078
0.7694,0.0226
0.7722,0.0132
0.775,0.0036
0.7778,-0.0084
0.7806,-0.0063
0.7833,0.0083
0.7861,-0.0097
0.7889,0.0075
0.7917,0.0008
0.7944,0.0123
0.7972,-0.0011
0.8,0.0226
0.8028,-0.009
0.8056,0.0004
0.8083,-0.0002
0.8111,0.0105
0.8139,0.0004
0.8167,-0.0053
0.8194,-0.0189
0.8222,0.008
0.825,0.0108
0.8278,0.0139
0.8306,0.002
0.8333,0.0102
0.8361,-0.0002
0.8389,-0.0111
0.8417,0.0173
0.8444,-0.0129
0.8472,-0.0019
0.85,0.0067
0.8528,-0.0115
0.8556,0.0045
0.8583,0.0077
0.8611,-0.0045
0.8639,-0.001
0.8667,-0.0144
0.8694,0.0034
0.8722,0.0035
0.875,-0.002
0.8778,-0.0037
0.8806,0.0101
0.8833,0.0041
0.8861,0.0018
0.8889,0.0078
0.8917,-0.0069
0.8944,-0.0075
0.8972,0.0059
0.9,-0.0216
0.9028,0.0135
0.9056,-0.001
0.9083,-0.0007
0.9111,0.0022
0.9139,-0.0121
0.9167,-0.0117
0.9194,0.0039
0.9222,0.0012
0.925,0.0158
0.9278,0.003
0.9306,0.0007
0.9333,-0.0181
0.9361,0.0077
0.9389,-0.0001
0.9417,0.0018
0.9444,0.01
0.9472,-0.0093
0.95,0.0009
0.9528,-0.0006
0.9556,-0.0075
0.9583,0.0019
0.9611,0.0145
0.9639,0.0065
0.9667,0.0105
0.9694,-0.0104
0.9722,-0.0023
0.975,0.0001
0.9778,0.0073
0.9806,-0.0134
0.9833,-0.0104
0.9861,-0.0039
0.9889,0.0006
0.9917,0.01
0.9944,-0.0025
0.9972,-0.0008
1.0,-0.0108
1.0028,0.0085
1.0056,-0.001
1.0083,-0.0218
1.0111,-0.0
1.0139,0.0173
1.0167,0.0151
1.0194,0.0077
1.0222,0.0064
1.025,0.0083
1.0278,0.0127
1.0306,-0.0089
1.0333,-0.006
1.0361,0.0077
1.0389,0.0019
1.0417,0.0095
1.0444,-0.0091
1.0472,-0.0046
1.05,-0.007
1.0528,0.0265
1.0556,0.0052
1.0583,0.0279
1.0611,0.0239
1.0639,0.0381
1.0667,0.0496
1.0694,0.052
1.0722,0.0229
1.075,0.0548
1.0778,0.0514
1.0806,0.0595
1.0833,0.0696
1.0861,0.0675
1.0889,0.0604
1.0917,0.0586
1.0944,0.0885
1.0972,0.0599
1.1,0.087
1.1028,0.0789
1.1056,0.0784
1.1083,0.0771
1.1111,0.0734
1.1139,0.0788
1.1167,0.0952
1.1194,0.0797
1.1222,0.0798
1.125,0.0796
1.1278,0.0799
1.1306,0.1043
1.1333,0.0875
1.1361,0.0807
1.1389,0.0634
1.1417,0.0608
1.1444,0.0719
1.1472,0.0674
1.15,0.0586
1.1528,0.0669
1.1556,0.0592
1.1583,0.0543
1.1611,0.0441
1.1639,0.0499
1.1667,0.0364
1.1694,0.0394
1.1722,0.0094
1.175,0.0263
1.1778,0.0247
1.1806,0.0194
1.1833,0.0125
1.1861,0.0139
1.1889,0.0089
1.1917,0.0176
1.1944,-0.0044
1.1972,-0.0071
1.2,0.0134
1.2028,-0.0093
1.2056,0.0122
1.2083,0.0114
1.2111,-0.0002
1.2139,0.0007
1.2167,-0.0109
1.2194,-0.0023
1.2222,0.008
1.225,0.0124
1.2278,0.0129
1.2306,0.0181
1.2333,-0.0078
1.2361,0.0105
1.2389,-0.0036
1.2417,-0.011
1.2444,0.0043
1.2472,0.0009
1.25,0.0031
1.2528,-0.0129
1.2556,0.0054
1.2583,0.0015
1.2611,-0.0337
1.2639,-0.0459
1.2667,-0.0431
1.2694,-0.0476
1.2722,-0.0501
1.275,-0.0298
1.2778,0.0021
1.2806,0.1083
1.2833,0.2048
1.2861,0.3089
1.2889,0.3942
1.2917,0.4992
1.2944,0.5783
1.2972,0.6586
1.3,0.713
1.3028,0.7696
1.3056,0.7802
1.3083,0.8015
1.3111,0.7872
1.3139,0.7882
1.3167,0.7499
1.3194,0.7188
1.3222,0.6613
1.325,0.583
1.3278,0.5262
1.3306,0.4297
1.3333,0.3537
1.3361,0.2413
1.3389,0.137
1.3417,0.0276
1.3444,-0.031
1.3472,-0.0297
1.35,-0.0722
1.3528,-0.0785
1.3556,-0.0995
1.3583,-0.1125
1.3611,-0.1395
1.3639,-0.1164
1.3667,-0.1218
1.3694,-0.1234
1.3722,-0.1014
1.375,-0.0978
1.3778,-0.0675
1.3806,-0.0401
1.3833,0.0045
1.3861,-0.0035
1.3889,-0.0015
1.3917,-0.0092
1.3944,-0.0069
1.3972,-0.0029
1.4,-0.0144
1.4028,0.0215
1.4056,0.0072
1.4083,-0.0165
1.4111,0.012
1.4139,0.0168
1.4167,-0.02
1.4194,-0.0086
1.4222,-0.0023
1.425,0.0033
1.4278,-0.0069
1.4306,0.0098
1.4333,-0.0129
1.4361,0.0031
1.4389,-0.0013
1.4417,0.0263
1.4444,0.0042
1.4472,-0.0117
1.45,0.0101
1.4528,0.0066
1.4556,0.0024
1.4583,-0.0149
1.4611,0.0078
1.4639,0.0027
1.4667,-0.014
1.4694,-0.0023
1.4722,-0.0042
1.475,-0.0043
1.4778,-0.0083
1.4806,0.0134
1.4833,0.0003
1.4861,-0.0045
1.4889,-0.0043
1.4917,-0.0111
1.4944,0.0101
1.4972,0.0143
1.5,0.0228
1.5028,0.016
1.5056,0.0327
1.5083,0.0298
1.5111,0.0275
1.5139,0.0399
1.5167,0.0663
1.5194,0.0533
1.5222,0.059
1.525,0.0531
1.5278,0.063
1.5306,0.0767
1.5333,0.0727
1.5361,0.0824
1.5389,0.0967
1.5417,0.0992
1.5444,0.1183
1.5472,0.1068
1.55,0.1135
1.5528,0.0956
1.5556,0.1173
1.5583,0.1302
1.5611,0.1185
1.5639,0.1281
1.5667,0.1493
1.5694,0.1445
1.5722,0.145
1.575,0.1278
1.5778,0.1366
1.5806,0.1448
1.5833,0.1557
1.5861,0.1568
1.5889,0.1403
1.5917,0.1455
1.5944,0.1614
1.5972,0.1489
1.6,0.1613
1.6028,0.1487
1.6056,0.1615
1.6083,0.1575
1.6111,0.1585
1.6139,0.1501
1.6167,0.1512
1.6194,0.148
1.6222,0.1551
1.625,0.1443
1.6278,0.1405
1.6306,0.1326
1.6333,0.127
1.6361,0.1267
1.6389,0.1106
1.6417,0.1214
1.6444,0.1247
1.6472,0.1155
1.65,0.116
1.6528,0.1098
1.6556,0.1199
1.6583,0.0921
1.6611,0.0804
1.6639,0.0818
1.6667,0.0805
1.6694,0.0906
1.6722,0.0898
1.675,0.0663
1.6778,0.0746
1.6806,0.0264
1.6833,0.0546
1.6861,0.0566
1.6889,0.0413
1.6917,0.0235
1.6944,0.0321
1.6972,0.0138
1.7,0.0226
1.7028,-0.005
1.7056,0.0248
1.7083,-0.0024
1.7111,0.0109
1.7139,-0.0158
1.7167,0.0013
1.7194,0.0006
1.7222,-0.0152
1.725,0.0106
1.7278,-0.0019
1.7306,0.0097
1.7333,0.0162
1.7361,-0.0107
1.7389,0.001
1.7417,-0.0076
1.7444,0.0032
1.7472,-0.02
1.75,0.0256
1.7528,0.0075
1.7556,0.002
1.7583,0.0082
1.7611,-0.0171
1.7639,-0.0049
1.7667,-0.0146
1.7694,0.0011
1.7722,0.0023
1.775,0.002
1.7778,-0.002
1.7806,0.0118
1.7833,-0.0021
1.7861,0.0057
1.7889,0.0089
1.7917,0.0001
1.7944,-0.0101
1.7972,-0.0012
1.8,-0.0023
1.8028,0.0081
1.8056,-0.003
1.8083,-0.0042
1.8111,-0.0216
1.8139,0.0027
1.8167,0.0164
1.8194,0.0023
1.8222,0.0014
1.825,0.007
1.8278,-0.0003
1.8306,-0.0037
1.8333,-0.0181
1.8361,0.0104
1.8389,-0.007
1.8417,0.0066
1.8444,0.0094
1.8472,-0.005
1.85,-0.0066
1.8528,0.013
1.8556,-0.011
1.8583,-0.0001
1.8611,0.0079
1.8639,-0.0103
1.8667,-0.0097
1.8694,-0.0047
1.8722,0.0064
1.875,0.0136
1.8778,0.0114
1.8806,-0.0145
1.8833,0.023
1.8861,0.0048
1.8889,-0.0005
1.8917,0.0055
1.8944,0.0087
1.8972,-0.0105
1.9,-0.0139
1.9028,-0.0002
1.9056,0.0117
1.9083,0.0
1.9111,0.0039
1.9139,-0.0015
1.9167,-0.0087
1.9194,0.0006
1.9222,-0.0017
1.925,-0.0062
1.9278,-0.0029
1.9306,0.0018
1.9333,0.0015
1.9361,-0.003
1.9389,0.0051
1.9417,-0.0115
1.9444,0.0188
1.9472,0.0112
1.95,-0.0032
1.9528,-0.0065
1.9556,0.0036
1.9583,0.009
1.9611,0.0128
1.9639,-0.0119
1.9667,-0.0124
1.9694,-0.0029
1.9722,0.0123
1.975,-0.0095
1.9778,-0.0139
1.9806,0.0082
1.9833,-0.0047
1.9861,-0.0124
1.9889,-0.0024
1.9917,0.0043
1.9944,0.02
1.9972,0.0047
2.0,-0.0003
2.0028,-0.0097
2.0056,-0.0117
2.0083,-0.0012
2.0111,-0.0017
2.0139,-0.0113
2.0167,-0.0024
2.0194,-0.0159
2.0222,-0.0117
2.025,0.0021
2.0278,-0.0031
2.0306,0.0107
2.0333,-0.0223
2.0361,-0.002
2.0389,-0.0002
2.0417,0.012
2.0444,0.0039
2.0472,-0.0021
2.05,0.0194
2.0528,-0.0037
2.0556,0.0019
2.0583,-0.0008
2.0611,0.0018
2.0639,0.001
2.0667,0.0101
2.0694,0.0031
2.0722,0.0025
2.075,0.0091
2.0778,-0.0035
2.0806,-0.017
2.0833,0.0004
2.0861,-0.0011
2.0889,-0.0117
2.0917,0.0029
2.0944,-0.0057
2.0972,-0.0197
2.1,-0.0004
2.1028,0.0108
2.1056,-0.0089
2.1083,0.0159
2.1111,0.005
2.1139,0.0064
2.1167,-0.0045
2.1194,0.0069
2.1222,-0.0057
2.125,0.0096
2.1278,0.0177
2.1306,0.0357
2.1333,0.03
2.1361,0.0454
2.1389,0.0401
2.1417,0.0545
2.1444,0.0254
2.1472,0.0601
2.15,0.0557
2.1528,0.0563
2.1556,0.0601
2.1583,0.068
2.1611,0.0783
2.1639,0.071
2.1667,0.0573
2.1694,0.0785
2.1722,0.0496
2.175,0.0805
2.1778,0.0639
2.1806,0.0637
2.1833,0.078
2.1861,0.0518
2.1889,0.0905
2.1917,0.0719
2.1944,0.0737
2.1972,0.0814
2.2,0.0945
2.2028,0.0586
2.2056,0.0801
2.2083,0.0578
2.2111,0.0823
2.2139,0.0646
2.2167,0.0839
2.2194,0.0689
2.2222,0.0692
2.225,0.0618
2.2278,0.0546
2.2306,0.0655
2.2333,0.0452
2.2361,0.0557
2.2389,0.0542
2.2417,0.0384
2.2444,0.0397
2.2472,0.0258
2.25,0.0333
2.2528,0.0585
2.2556,0.0283
2.2583,0.0043
2.2611,-0.0012
2.2639,0.02
2.2667,0.0195
2.2694,0.0121
2.2722,0.0093
2.275,-0.0044
2.2778,0.0011
2.2806,-0.0149
2.2833,0.0003
2.2861,-0.0054
2.2889,-0.0011
2.2917,0.0075
2.2944,-0.0007
2.2972,0.0003
2.3,0.0117
2.3028,0.0084
2.3056,0.0119
2.3083,0.0004
2.3111,0.0148
2.3139,0.0128
2.3167,0.0006
2.3194,0.0023
2.3222,0.0058
2.325,-0.0131
2.3278,0.0018
2.3306,-0.0159
2.3333,-0.0053
2.3361,-0.0017
2.3389,-0.0163
2.3417,-0.0216
2.3444,-0.0206
2.3472,-0.031
2.35,-0.023
2.3528,-0.0348
2.3556,-0.0207
2.3583,-0.0316
2.3611,0.019
2.3639,0.1147
2.3667,0.225
2.3694,0.3273
2.3722,0.4374
2.375,0.5234
2.3778,0.5792
2.3806,0.6379
2.3833,0.7072
2.3861,0.7498
2.3889,0.7691
2.3917,0.8171
2.3944,0.806
2.3972,0.7999
2.4,0.7677
2.4028,0.7158
2.4056,0.6875
2.4083,0.6205
2.4111,0.5539
2.4139,0.4647
2.4167,0.3707
2.4194,0.2678
2.4222,0.1633
2.425,0.0603
2.4278,-0.0014
2.4306,-0.0458
2.4333,-0.0577
2.4361,-0.0646
2.4389,-0.0831
2.4417,-0.1171
2.4444,-0.1111
2.4472,-0.1031
2.45,-0.1264
2.4528,-0.1197
2.4556,-0.1109
2.4583,-0.1043
2.4611,-0.0936
2.4639,-0.0612
2.4667,-0.049
2.4694,0.0006
2.4722,-0.0193
2.475,-0.0072
2.4778,-0.0018
2.4806,-0.0009
2.4833,0.0095
2.4861,-0.0082
2.4889,-0.0103
2.4917,0.0135
2.4944,0.0069
2.4972,0.0
2.5,0.0048
2.5028,-0.0093
2.5056,-0.0074
2.5083,-0.0053
2.5111,-0.0011
2.5139,-0.0158
2.5167,0.0128
2.5194,-0.0077
2.5222,0.0114
2.525,0.0195
2.5278,-0.0056
2.5306,0.0074
2.5333,0.0023
2.5361,-0.0038
2.5389,0.0083
2.5417,-0.0045
2.5444,0.0137
2.5472,0.0083
2.55,0.0007
2.5528,-0.0041
2.5556,0.0143
2.5583,0.0009
2.5611,0.0029
2.5639,-0.0087
2.5667,-0.0012
2.5694,0.0044
2.5722,-0.0212
2.575,-0.0068
2.5778,0.0044
2.5806,0.0173
2.5833,0.0014
2.5861,-0.0006
2.5889,0.0059
2.5917,0.0278
2.5944,0.0452
2.5972,0.0267
2.6,0.0311
2.6028,0.0594
2.6056,0.0527
2.6083,0.0657
2.6111,0.0471
2.6139,0.0812
2.6167,0.0661
2.6194,0.0822
2.6222,0.0733
2.625,0.0723
2.6278,0.0903
2.6306,0.1083
2.6333,0.0703
2.6361,0.1035
2.6389,0.1142
2.6417,0.1193
2.6444,0.1193
2.6472,0.1268
2.65,0.1099
2.6528,0.1437
2.6556,0.1344
2.6583,0.12
2.6611,0.1404
2.6639,0.1321
2.6667,0.1401
2.6694,0.1405
2.6722,0.1633
2.675,0.1595
2.6778,0.146
2.6806,0.1504
2.6833,0.1555
2.6861,0.1456
2.6889,0.1451
2.6917,0.1631
2.6944,0.1421
2.6972,0.1557
2.7,0.1347
2.7028,0.1711
2.7056,0.1531
2.7083,0.133
2.7111,0.1406
2.7139,0.1437
2.7167,0.1476
2.7194,0.1358
2.7222,0.1236
2.725,0.1443
2.7278,0.1314
2.7306,0.142
2.7333,0.1141
2.7361,0.1354
2.7389,0.1105
2.7417,0.129
2.7444,0.118
2.7472,0.1126
2.75,0.1283
2.7528,0.1142
2.7556,0.0916
2.7583,0.0917
2.7611,0.0913
2.7639,0.0745
2.7667,0.0716
2.7694,0.0751
2.7722,0.0632
2.775,0.0685
2.7778,0.0361
2.7806,0.0319
2.7833,0.0381
2.7861,0.0373
2.7889,0.0335
2.7917,0.0335
2.7944,0.0159
2.7972,0.026
2.8,0.0106
2.8028,0.0035
2.8056,0.0107
2.8083,-0.0072
2.8111,-0.0103
2.8139,-0.0104
2.8167,-0.0103
2.8194,-0.0019
2.8222,-0.0004
2.825,0.0039
2.8278,0.0009
2.8306,0.0054
2.8333,-0.0048
2.8361,0.01
2.8389,-0.0154
2.8417,0.0173
2.8444,-0.0069
2.8472,-0.0064
2.85,0.0011
2.8528,-0.0122
2.8556,-0.0014
2.8583,0.0145
2.8611,0.0112
2.8639,-0.0112
2.8667,-0.0167
2.8694,-0.0005
2.8722,-0.0062
2.875,-0.0078
2.8778,0.0058
2.8806,-0.0141
2.8833,0.022
2.8861,-0.0087
2.8889,-0.0101
2.8917,-0.0072
2.8944,0.0048
2.8972,0.0018
2.9,0.0132
2.9028,-0.0083
2.9056,0.0185
2.9083,0.0055
2.9111,0.0109
2.9139,0.01
2.9167,-0.0151
2.9194,0.002
2.9222,-0.0142
2.925,-0.0003
2.9278,0.016
2.9306,0.0186
2.9333,-0.0084
2.9361,-0.0047
2.9389,-0.0058
2.9417,0.0061
2.9444,0.0011
2.9472,-0.0064
2.95,0.0033
2.9528,-0.0165
2.9556,-0.0051
2.9583,0.0111
2.9611,0.0009
2.9639,0.0098
2.9667,-0.0031
2.9694,0.0142
2.9722,0.0068
2.975,0.0036
2.9778,0.0042
2.9806,-0.0115
2.9833,0.0171
2.9861,0.0077
2.9889,-0.0036
2.9917,-0.0053
2.9944,-0.0109
2.9972,0.0111
3.0,0.0011
3.0028,0.0012
3.0056,0.0001
3.0083,-0.0053
3.0111,-0.0095
3.0139,-0.0121
3.0167,0.0047
3.0194,-0.0179
3.0222,0.0055
3.025,-0.0039
3.0278,-0.005
3.0306,-0.0097
3.0333,-0.0038
3.0361,-0.0123
3.0389,-0.0137
3.0417,0.0015
3.0444,0.0235
3.0472,-0.0027
3.05,-0.0045
3.0528,0.0056
3.0556,0.0066
3.0583,0.02
3.0611,-0.0048
3.0639,0.0121
3.0667,0.0017
3.0694,-0.0228
3.0722,0.011
3.075,-0.0068
3.0778,-0.0031
3.0806,-0.0062
3.0833,-0.0034
3.0861,-0.0019
3.0889,0.0113
3.0917,-0.0078
3.0944,-0.0103
3.0972,0.0038
3.1,-0.0051
3.1028,-0.0136
3.1056,0.0055
3.1083,0.0104
3.1111,-0.0091
3.1139,-0.0068
3.1167,0.0145
3.1194,0.0033
3.1222,0.0115
3.125,0.0099
3.1278,0.0004
3.1306,0.0021
3.1333,0.0015
3.1361,0.0056
3.1389,0.0035
3.1417,-0.0005
3.1444,-0.008
3.1472,-0.0074
3.15,0.0043
3.1528,0.0023
3.1556,0.0036
3.1583,0.0032
3.1611,-0.0115
3.1639,0.0022
3.1667,-0.0
3.1694,0.0057
3.1722,0.0259
3.175,0.0036
3.1778,-0.0101
3.1806,0.0253
3.1833,-0.0019
3.1861,0.0021
3.1889,-0.0111
3.1917,0.0005
3.1944,0.005
3.1972,-0.0009
3.2,0.0066
3.2028,0.0067
3.2056,0.0029
3.2083,0.0184
3.2111,0.0086
3.2139,-0.0034
3.2167,-0.0114
3.2194,0.0088
3.2222,-0.007
3.225,-0.0084
3.2278,-0.0033
3.2306,0.0071
3.2333,0.005
3.2361,0.0185
3.2389,0.0203
3.2417,0.0308
3.2444,0.0149
3.2472,0.0411
3.25,0.0273
3.2528,0.05
3.2556,0.0662
3.2583,0.0432
3.2611,0.0544
3.2639,0.0623
3.2667,0.0526
3.2694,0.0593
3.2722,0.0466
3.275,0.0442
3.2778,0.0682
3.2806,0.0545
3.2833,0.0708
3.2861,0.0752
3.2889,0.0754
3.2917,0.0725
3.2944,0.0837
3.2972,0.0696
3.3,0.0841
3.3028,0.089
3.3056,0.0859
3.3083,0.0837
3.3111,0.0826
3.3139,0.0625
3.3167,0.0989
3.3194,0.0676
3.3222,0.0653
3.325,0.0761
3.3278,0.0886
3.3306,0.0662
3.3333,0.0498
3.3361,0.0746
3.3389,0.0632
3.3417,0.0604
3.3444,0.061
3.3472,0.0563
3.35,0.0481
3.3528,0.0481
3.3556,0.0414
3.3583,0.0405
3.3611,0.0182
3.3639,0.0309
3.3667,0.0223
3.3694,0.019
3.3722,0.0231
3.375,0.0093
3.3778,-0.0087
3.3806,-0.0027
3.3833,-0.0007
3.3861,-0.0133
3.3889,-0.0162
3.3917,0.0082
3.3944,-0.0156
3.3972,-0.0052
3.4,-0.0067
3.4028,0.0015
3.4056,0.0085
3.4083,-0.011
3.4111,0.0119
3.4139,0.0226
3.4167,0.0011
3.4194,0.0066
3.4222,0.014
3.425,0.0001
3.4278,-0.0142
3.4306,-0.0121
3.4333,-0.0024
3.4361,0.0219
3.4389,0.0214
3.4417,0.0111
3.4444,-0.0146
3.4472,0.0093
3.45,-0.0296
3.4528,-0.0189
3.4556,-0.038
3.4583,-0.0556
3.4611,-0.0296
3.4639,-0.0069
3.4667,-0.0132
3.4694,0.0057
3.4722,0.0967
3.475,0.2032
3.4778,0.3144
3.4806,0.4026
3.4833,0.4824
3.4861,0.5527
3.4889,0.6442
3.4917,0.6909
3.4944,0.7385
3.4972,0.7631
3.5,0.7881
3.5028,0.8041
3.5056,0.803
3.5083,0.7799
3.5111,0.7367
3.5139,0.676
3.5167,0.6526
3.5194,0.5968
3.5222,0.5048
3.525,0.4276
3.5278,0.3185
3.5306,0.2283
3.5333,0.1044
3.5361,-0.0041
3.5389,-0.0351
3.5417,-0.007
3.5444,-0.0487
3.5472,-0.0822
3.55,-0.0993
3.5528,-0.1047
3.5556,-0.1115
3.5583,-0.1222
3.5611,-0.117
3.5639,-0.0923
3.5667,-0.0956
3.5694,-0.0892
3.5722,-0.0601
3.575,-0.0616
3.5778,-0.0184
3.5806,0.0027
3.5833,0.0039
3.5861,0.0008
3.5889,-0.0039
3.5917,-0.002
3.5944,0.0123
3.5972,0.0009
3.6,-0.0154
3.6028,-0.0069
3.6056,0.0026
3.6083,-0.0052
3.6111,-0.0085
3.6139,0.0032
3.6167,0.0103
3.6194,0.0041
3.6222,-0.0031
3.625,0.0115
3.6278,0.0056
3.6306,0.012
3.6333,-0.0012
3.6361,0.0029
3.6389,-0.0053
3.6417,-0.0086
3.6444,0.0044
3.6472,-0.0129
3.65,-0.0292
3.6528,0.0244
3.6556,0.0027
3.6583,-0.0142
3.6611,0.0026
3.6639,0.0016
3.6667,-0.0043
3.6694,0.0026
3.6722,-0.0036
3.675,-0.0093
3.6778,0.0071
3.6806,0.0078
3.6833,0.0015
3.6861,0.0083
3.6889,-0.0062
3.6917,0.0037
3.6944,-0.0067
3.6972,0.0181
3.7,0.0237
3.7028,0.036
3.7056,0.0342
3.7083,0.0128
3.7111,0.0495
3.7139,0.0389
3.7167,0.0503
3.7194,0.0745
3.7222,0.0578
3.725,0.0691
3.7278,0.058
3.7306,0.0796
3.7333,0.0601
3.7361,0.0987
3.7389,0.0989
3.7417,0.1097
3.7444,0.1108
3.7472,0.0902
3.75,0.105
3.7528,0.1132
3.7556,0.1119
3.7583,0.1403
3.7611,0.1145
3.7639,0.1389
3.7667,0.1494
3.7694,0.1376
3.7722,0.1474
3.775,0.1385
3.7778,0.1372
3.7806,0.1463
3.7833,0.1324
3.7861,0.1521
3.7889,0.1232
3.7917,0.1464
3.7944,0.143
3.7972,0.1373
3.8,0.1484
3.8028,0.1517
3.8056,0.1345
3.8083,0.1523
3.8111,0.1386
3.8139,0.1566
3.8167,0.1415
3.8194,0.1465
3.8222,0.1272
3.825,0.1567
3.8278,0.1185
3.8306,0.1498
3.8333,0.15
3.8361,0.1524
3.8389,0.141
3.8417,0.1344
3.8444,0.1236
3.8472,0.1138
3.85,0.1319
3.8528,0.111
3.8556,0.1107
3.8583,0.1136
3.8611,0.1112
3.8639,0.1007
3.8667,0.0839
3.8694,0.0936
3.8722,0.0952
3.875,0.0742
3.8778,0.0766
3.8806,0.0581
3.8833,0.0691
3.8861,0.0626
3.8889,0.0532
3.8917,0.0481
3.8944,0.0558
3.8972,0.0374
3.9,0.058
3.9028,0.0321
3.9056,0.006
3.9083,0.0181
3.9111,0.006
3.9139,0.001
3.9167,-0.0041
3.9194,0.0204
3.9222,-0.0009
3.925,-0.0051
3.9278,-0.0013
3.9306,-0.0093
3.9333,-0.0129
3.9361,0.0172
3.9389,-0.0002
3.9417,0.012
3.9444,0.0039
3.9472,-0.0088
3.95,0.0147
3.9528,-0.0015
3.9556,-0.0063
3.9583,0.0108
3.9611,0.0027
3.9639,-0.007
3.9667,-0.0114
3.9694,-0.0108
3.9722,-0.012
3.975,0.0034
3.9778,-0.0019
3.9806,0.0138
3.9833,0.0066
3.9861,0.0001
3.9889,0.0032
3.9917,-0.0137
3.9944,0.0156
3.9972,-0.0044
4.0,0.0047
4.0028,0.0016
4.0056,-0.0087
4.0083,0.0052
4.0111,0.0109
4.0139,-0.0106
4.0167,-0.0199
4.0194,-0.0155
4.0222,-0.0064
4.025,0.0057
4.0278,-0.0161
4.0306,-0.0121
4.0333,0.0017
4.0361,0.0131
4.0389,0.0068
4.0417,-0.0038
4.0444,0.0028
4.0472,-0.0034
4.05,0.0038
4.0528,0.0141
4.0556,0.0089
4.0583,-0.0105
4.0611,0.0158
4.0639,0.009
4.0667,0.0199
4.0694,-0.0009
4.0722,-0.0047
4.075,-0.0016
4.0778,-0.0102
4.0806,-0.0219
4.0833,-0.0023
4.0861,-0.0168
4.0889,-0.0068
4.0917,0.0011
4.0944,0.0124
4.0972,-0.0062
4.1,-0.0112
4.1028,-0.0183
4.1056,-0.015
4.1083,0.005
4.1111,-0.0
4.1139,0.009
4.1167,0.0025
4.1194,-0.0089
4.1222,-0.017
4.125,-0.0152
4.1278,0.008
4.1306,-0.0064
4.1333,0.0052
4.1361,0.0002
4.1389,0.0107
4.1417,-0.0064
4.1444,0.0068
4.1472,-0.017
4.15,-0.0038
4.1528,-0.0043
4.1556,0.0148
4.1583,0.004
4.1611,-0.0015
4.1639,0.004
4.1667,0.0029
4.1694,0.0072
4.1722,0.0132
4.175,-0.0024
4.1778,0.0034
4.1806,0.0072
4.1833,0.0114
4.1861,-0.0029
4.1889,-0.0145
4.1917,-0.0065
4.1944,0.0024
4.1972,-0.0068
4.2,0.0119
4.2028,0.0087
4.2056,0.0015
4.2083,0.002
4.2111,0.0036
4.2139,0.0013
4.2167,-0.0118
4.2194,-0.0111
4.2222,0.0124
4.225,0.0048
4.2278,0.0049
4.2306,-0.0058
4.2333,0.0012
4.2361,0.0089
4.2389,-0.0149
4.2417,-0.0068
4.2444,-0.0109
4.2472,0.0052
4.25,0.0084
4.2528,0.0138
4.2556,-0.0156
4.2583,-0.0124
4.2611,0.0096
4.2639,-0.0133
4.2667,0.0143
4.2694,-0.0126
4.2722,-0.0091
4.275,0.0056
4.2778,0.0165
4.2806,0.0016
4.2833,0.0042
4.2861,0.0007
4.2889,-0.0002
4.2917,0.0108
4.2944,-0.0081
4.2972,0.0049
4.3,-0.0244
4.3028,-0.0036
4.3056,0.0011
4.3083,-0.0136
4.3111,0.0094
4.3139,0.0031
4.3167,-0.0076
4.3194,-0.0096
4.3222,0.0141
4.325,-0.0069
4.3278,0.0028
4.3306,0.0012
4.3333,-0.0017
4.3361,0.0061
4.3389,0.0061
4.3417,0.0052
4.3444,-0.0154
4.3472,0.0167
4.35,0.0201
4.3528,0.0176
4.3556,0.0257
4.3583,0.0099
4.3611,0.0372
4.3639,0.0212
4.3667,0.0351
4.3694,0.0454
4.3722,0.0558
4.375,0.0482
4.3778,0.0545
4.3806,0.0388
4.3833,0.0484
4.3861,0.0508
4.3889,0.0559
4.3917,0.0711
4.3944,0.0692
4.3972,0.0831
4.4,0.0815
4.4028,0.0777
4.4056,0.064
4.4083,0.0873
4.4111,0.06
4.4139,0.0761
4.4167,0.0948
4.4194,0.078
4.4222,0.0874
4.425,0.0699
4.4278,0.0854
4.4306,0.0853
4.4333,0.0712
4.4361,0.0778
4.4389,0.0631
4.4417,0.0841
4.4444,0.0727
4.4472,0.0713
4.45,0.054
4.4528,0.0536
4.4556,0.0568
4.4583,0.0632
4.4611,0.0464
4.4639,0.0583
4.4667,0.0463
4.4694,0.0617
4.4722,0.0545
4.475,0.021
4.4778,0.0248
4.4806,0.044
4.4833,0.0298
4.4861,0.0242
4.4889,0.0292
4.4917,0.009
4.4944,0.0088
4.4972,-0.0077
4.5,0.0073
4.5028,0.0086
4.5056,0.0031
4.5083,0.0009
4.5111,0.0053
4.5139,-0.0039
4.5167,0.0036
4.5194,-0.0125
4.5222,-0.0078
4.525,-0.0154
4.5278,-0.0055
4.5306,0.013
4.5333,0.01
4.5361,0.0008
4.5389,-0.003
4.5417,0.0129
4.5444,-0.0079
4.5472,-0.0108
4.55,-0.0071
4.5528,0.0058
4.5556,-0.0083
4.5583,-0.0165
4.5611,0.0096
4.5639,0.0073
4.5667,0.001
4.5694,-0.0002
4.5722,-0.0221
4.575,-0.0372
4.5778,-0.0106
4.5806,-0.0432
4.5833,-0.0412
4.5861,-0.0458
4.5889,-0.0002
4.5917,-0.0023
4.5944,0.1141
4.5972,0.2219
4.6,0.2893
4.6028,0.3927
4.6056,0.4848
4.6083,0.5624
4.6111,0.6253
4.6139,0.7009
4.6167,0.7371
4.6194,0.7654
4.6222,0.781
4.625,0.7892
4.6278,0.7982
4.6306,0.7475
4.6333,0.7425
4.6361,0.7296
4.6389,0.6585
4.6417,0.6042
4.6444,0.5327
4.6472,0.4311
4.65,0.3607
4.6528,0.2753
4.6556,0.157
4.6583,0.0408
4.6611,0.0055
4.6639,-0.0256
4.6667,-0.0415
4.6694,-0.0707
4.6722,-0.098
4.675,-0.099
4.6778,-0.1055
4.6806,-0.1294
4.6833,-0.125
4.6861,-0.1128
4.6889,-0.1125
4.6917,-0.1127
4.6944,-0.079
4.6972,-0.0686
4.7,-0.0554
4.7028,-0.0372
4.7056,-0.0155
4.7083,0.0016
4.7111,0.003
4.7139,-0.007
4.7167,0.0253
4.7194,0.0076
4.7222,0.0086
4.725,-0.0132
4.7278,-0.0027
4.7306,0.011
4.7333,0.0068
4.7361,0.0144
4.7389,-0.0163
4.7417,-0.0066
4.7444,0.0105
4.7472,-0.0002
4.75,0.0004
4.7528,-0.0032
4.7556,0.006
4.7583,0.0033
4.7611,-0.0062
4.7639,-0.0081
4.7667,-0.0144
4.7694,-0.0073
4.7722,0.0026
4.775,-0.0144
4.7778,-0.0114
4.7806,0.0049
4.7833,0.0193
4.7861,0.0033
4.7889,0.0013
4.7917,0.0072
4.7944,-0.0139
4.7972,0.0045
4.8,0.0073
4.8028,-0.0121
4.8056,0.0011
4.8083,-0.0043
4.8111,0.0045
4.8139,0.0007
4.8167,-0.0052
4.8194,0.0012
4.8222,0.0331
4.825,0.0064
4.8278,0.0104
4.8306,0.0218
4.8333,0.0365
4.8361,0.0247
4.8389,0.0373
4.8417,0.0426
4.8444,0.0528
4.8472,0.0644
4.85,0.0533
4.8528,0.046
4.8556,0.0728
4.8583,0.074
4.8611,0.0839
4.8639,0.0873
4.8667,0.1018
4.8694,0.106
4.8722,0.1049
4.875,0.1139
4.8778,0.1036
4.8806,0.1192
4.8833,0.1171
4.8861,0.0897
4.8889,0.1262
4.8917,0.1207
4.8944,0.136
4.8972,0.138
4.9,0.1433
4.9028,0.1303
4.9056,0.1283
4.9083,0.138
4.9111,0.1598
4.9139,0.1355
4.9167,0.1462
4.9194,0.1455
4.9222,0.1461
4.925,0.1448
4.9278,0.1669
4.9306,0.1447
4.9333,0.1497
4.9361,0.1509
4.9389,0.16
4.9417,0.1613
4.9444,0.1462
4.9472,0.1557
4.95,0.1683
4.9528,0.1409
4.9556,0.1474
4.9583,0.1596
4.9611,0.1471
4.9639,0.1499
4.9667,0.1315
4.9694,0.1323
4.9722,0.137
4.975,0.1307
4.9778,0.127
4.9806,0.1385
4.9833,0.1188
4.9861,0.0986
4.9889,0.112
4.9917,0.1066
4.9944,0.0901
4.9972,0.0878
5.0,0.0904
5.0028,0.084
5.0056,0.076
5.0083,0.0847
5.0111,0.0791
5.0139,0.0643
5.0167,0.0755
5.0194,0.0688
5.0222,0.0653
5.025,0.059
5.0278,0.0349
5.0306,0.0154
5.0333,0.041
5.0361,0.0019
5.0389,0.0238
5.0417,0.0136
5.0444,-0.0055
5.0472,-0.0095
5.05,-0.0274
5.0528,0.0135
5.0556,-0.0013
5.0583,0.0259
5.0611,0.0217
5.0639,0.0109
5.0667,0.0155
5.0694,-0.0092
5.0722,0.0215
5.075,0.0014
5.0778,0.0044
5.0806,-0.0016
5.0833,0.0145
5.0861,0.007
5.0889,0.015
5.0917,-0.003
5.0944,-0.0005
5.0972,-0.0164
5.1,0.0047
5.1028,0.011
5.1056,-0.0109
5.1083,0.0022
5.1111,-0.0076
5.1139,-0.0275
5.1167,0.0172
5.1194,-0.0056
5.1222,0.013
5.125,-0.0151
5.1278,-0.0071
5.1306,0.0094
5.1333,-0.0107
5.1361,-0.0038
5.1389,0.0004
5.1417,-0.0095
5.1444,0.0143
5.1472,-0.006
5.15,-0.0136
5.1528,-0.0188
5.1556,0.0218
5.1583,0.0072
5.1611,-0.0037
5.1639,-0.0042
5.1667,0.0183
5.1694,-0.0043
5.1722,0.016
5.175,0.0095
5.1778,-0.0079
5.1806,-0.0109
5.1833,-0.0087
5.1861,0.008
5.1889,0.0058
5.1917,-0.0044
5.1944,0.0054
5.1972,0.0248
5.2,-0.0014
5.2028,-0.0022
5.2056,-0.0036
5.2083,-0.0036
5.2111,-0.0084
5.2139,0.0034
5.2167,-0.006
5.2194,0.0019
5.2222,-0.007
5.225,0.004
5.2278,0.0133
5.2306,-0.0112
5.2333,0.0105
5.2361,-0.0047
5.2389,0.0051
5.2417,0.0011
5.2444,0.0091
5.2472,0.0047
5.25,0.0091
5.2528,-0.0017
5.2556,0.007
5.2583,-0.0059
5.2611,0.001
5.2639,-0.0076
5.2667,0.0059
5.2694,0.0097
5.2722,-0.0025
5.275,-0.0101
5.2778,0.01
5.2806,-0.0041
5.2833,0.0032
5.2861,-0.0046
5.2889,-0.0035
5.2917,0.0052
5.2944,0.0057
5.2972,-0.0167
5.3,0.0074
5.3028,-0.0147
5.3056,-0.0102
5.3083,0.0056
5.3111,-0.0107
5.3139,-0.0078
5.3167,0.0015
5.3194,0.0079
5.3222,-0.0235
5.325,0.0014
5.3278,0.0043
5.3306,0.0105
5.3333,-0.014
5.3361,0.0012
5.3389,0.0007
5.3417,0.0161
5.3444,0.004
5.3472,-0.0132
5.35,-0.0069
5.3528,0.0007
5.3556,-0.0105
5.3583,-0.0045
5.3611,0.0102
5.3639,0.0023
5.3667,-0.002
5.3694,-0.0053
5.3722,-0.0071
5.375,-0.006
5.3778,0.0115
5.3806,0.0105
5.3833,-0.0218
5.3861,-0.005
5.3889,0.0003
5.3917,-0.0048
5.3944,-0.0052
5.3972,-0.0087
5.4,-0.0011
5.4028,0.0059
5.4056,0.0058
5.4083,0.0022
5.4111,-0.0033
5.4139,0.001
5.4167,-0.0021
5.4194,-0.0025
5.4222,-0.001
5.425,-0.0032
5.4278,-0.0139
5.4306,-0.0017
5.4333,0.0096
5.4361,-0.0002
5.4389,-0.0099
5.4417,-0.0071
5.4444,-0.0009
5.4472,-0.0012
5.45,-0.0087
5.4528,0.011
5.4556,0.0092
5.4583,0.003
5.4611,-0.0075
5.4639,-0.0024
5.4667,0.0092
5.4694,-0.0032
5.4722,0.0051
5.475,0.0194
5.4778,0.0126
5.4806,0.0176
5.4833,0.0057
5.4861,0.0298
5.4889,0.0229
5.4917,0.0421
5.4944,0.0158
5.4972,0.0262
5.5,0.0377
5.5028,0.0404
5.5056,0.0446
5.5083,0.0548
5.5111,0.0537
5.5139,0.0506
5.5167,0.0849
5.5194,0.0556
5.5222,0.0718
5.525,0.0621
5.5278,0.0796
5.5306,0.063
5.5333,0.0832
5.5361,0.0677
5.5389,0.0739
5.5417,0.0675
5.5444,0.0815
5.5472,0.075
5.55,0.0747
5.5528,0.0986
5.5556,0.0817
5.5583,0.0988
5.5611,0.083
5.5639,0.069
5.5667,0.0853
5.5694,0.0626
5.5722,0.068
5.575,0.0659
5.5778,0.072
5.5806,0.0754
5.5833,0.0749
5.5861,0.0599
5.5889,0.0552
5.5917,0.0479
5.5944,0.0636
5.5972,0.0538
5.6,0.0291
5.6028,0.0302
5.6056,0.04
5.6083,0.0264
5.6111,0.0391
5.6139,0.0322
5.6167,0.0173
5.6194,0.0151
5.6222,0.0148
5.625,-0.0081
5.6278,-0.004
5.6306,0.0043
5.6333,-0.0
5.6361,-0.0062
5.6389,0.0124
5.6417,-0.0011
5.6444,-0.0119
5.6472,-0.0116
5.65,-0.0043
5.6528,0.0231
5.6556,-0.0057
5.6583,0.0108
5.6611,0.01
5.6639,-0.0042
5.6667,0.0069
5.6694,-0.0115
5.6722,0.002
5.675,0.0028
5.6778,-0.0024
5.6806,0.0119
5.6833,-0.0045
5.6861,0.0304
5.6889,-0.0134
5.6917,-0.012
5.6944,-0.0077
5.6972,-0.0282
5.7,-0.0372
5.7028,-0.031
5.7056,-0.0341
5.7083,-0.0256
5.7111,-0.0131
5.7139,-0.0104
5.7167,0.0789
5.7194,0.208
5.7222,0.294
5.725,0.4019
5.7278,0.474
5.7306,0.557
5.7333,0.6404
5.7361,0.6834
5.7389,0.7448
5.7417,0.796
5.7444,0.8171
5.7472,0.8277
5.75,0.8075
5.7528,0.7774
5.7556,0.7212
5.7583,0.6642
5.7611,0.6133
5.7639,0.5377
5.7667,0.4579
5.7694,0.3698
5.7722,0.257
5.775,0.1716
5.7778,0.0614
5.7806,-0.0122
5.7833,-0.0325
5.7861,-0.057
5.7889,-0.079
5.7917,-0.0957
5.7944,-0.0931
5.7972,-0.1101
5.8,-0.0964
5.8028,-0.1017
5.8056,-0.1119
5.8083,-0.0923
5.8111,-0.0789
5.8139,-0.0895
5.8167,-0.0418
5.8194,-0.0422
5.8222,0.0105
5.825,-0.0034
5.8278,-0.0048
5.8306,-0.0178
5.8333,0.0019
5.8361,0.0086
5.8389,-0.0
5.8417,-0.0015
5.8444,0.0044
5.8472,-0.0106
5.85,-0.0016
5.8528,0.0004
5.8556,0.0099
5.8583,-0.001
5.8611,0.0011
5.8639,-0.0063
5.8667,0.0221
5.8694,0.0016
5.8722,-0.0006
5.875,0.0056
5.8778,0.0035
5.8806,-0.0077
5.8833,0.0203
5.8861,-0.0094
5.8889,0.0027
5.8917,-0.0022
5.8944,0.0128
5.8972,0.0127
5.9,-0.0172
5.9028,0.0005
5.9056,-0.0129
5.9083,-0.0006
5.9111,0.0041
5.9139,0.0029
5.9167,0.0064
5.9194,-0.0065
5.9222,0.0017
5.925,-0.0005
5.9278,-0.0061
5.9306,0.0123
5.9333,-0.0025
5.9361,0.0155
5.9389,0.0472
5.9417,0.0329
5.9444,0.0341
5.9472,0.0373
5.95,0.0259
5.9528,0.0728
5.9556,0.0582
5.9583,0.0552
5.9611,0.075
5.9639,0.0834
5.9667,0.0882
5.9694,0.0873
5.9722,0.093
5.975,0.0866
5.9778,0.084
5.9806,0.1043
5.9833,0.1126
5.9861,0.1138
5.9889,0.122
5.9917,0.1201
5.9944,0.1377
5.9972,0.1294
6.0,0.1395
6.0028,0.1351
6.0056,0.1295
6.0083,0.1423
6.0111,0.164
6.0139,0.144
6.0167,0.1454
6.0194,0.1585
6.0222,0.1417
6.025,0.1488
6.0278,0.1472
6.0306,0.1583
6.0333,0.1725
6.0361,0.1674
6.0389,0.159
6.0417,0.1646
6.0444,0.164
6.0472,0.1427
6.05,0.1509
6.0528,0.1295
6.0556,0.1396
6.0583,0.1449
6.0611,0.142
6.0639,0.1553
6.0667,0.1328
6.0694,0.1214
6.0722,0.142
6.075,0.1289
6.0778,0.118
6.0806,0.115
6.0833,0.1265
6.0861,0.1127
6.0889,0.111
6.0917,0.1014
6.0944,0.1083
6.0972,0.1004
6.1,0.0878
6.1028,0.0838
6.1056,0.072
6.1083,0.0721
6.1111,0.0844
6.1139,0.0716
6.1167,0.0474
6.1194,0.0604
6.1222,0.0592
6.125,0.0367
6.1278,0.0328
6.1306,0.0327
6.1333,0.033
6.1361,0.0136
6.1389,0.0016
6.1417,0.0025
6.1444,-0.0045
6.1472,-0.0082
6.15,-0.0028
6.1528,0.0013
6.1556,0.0168
6.1583,0.0067
6.1611,0.0112
6.1639,0.0067
6.1667,-0.018
6.1694,0.0026
6.1722,0.0047
6.175,0.0021
6.1778,-0.0072
6.1806,-0.0015
6.1833,0.0021
6.1861,0.0119
6.1889,-0.009
6.1917,-0.0079
6.1944,-0.0029
6.1972,-0.0077
6.2,0.0115
6.2028,0.0188
6.2056,0.0035
6.2083,-0.0012
6.2111,0.0068
6.2139,-0.011
6.2167,0.0081
6.2194,-0.0043
6.2222,-0.0073
6.225,0.0134
6.2278,-0.0157
6.2306,-0.0026
6.2333,-0.0136
6.2361,-0.0017
6.2389,-0.0123
6.2417,-0.0208
6.2444,-0.0141
6.2472,-0.0043
6.25,-0.0002
6.2528,0.0074
6.2556,0.0059
6.2583,0.0044
6.2611,0.0077
6.2639,-0.0077
6.2667,-0.0136
6.2694,-0.0028
6.2722,-0.0011
6.275,0.012
6.2778,0.0039
6.2806,-0.0014
6.2833,0.0094
6.2861,0.0107
6.2889,0.0108
6.2917,-0.0083
6.2944,-0.0016
6.2972,0.0029
6.3,-0.0137
6.3028,-0.0155
6.3056,0.0122
6.3083,0.027
6.3111,0.0021
6.3139,0.0114
6.3167,0.0027
6.3194,0.0254
6.3222,0.0071
6.325,-0.0128
6.3278,-0.0049
6.3306,0.018
6.3333,0.0096
6.3361,-0.0006
6.3389,-0.0019
6.3417,0.0021
6.3444,0.0212
6.3472,-0.0095
6.35,0.0048
6.3528,-0.0035
6.3556,0.0196
6.3583,0.0153
6.3611,0.0107
6.3639,-0.0072
6.3667,-0.0053
6.3694,-0.0069
6.3722,0.0097
6.375,-0.0122
6.3778,0.0054
6.3806,-0.0037
6.3833,0.0042
6.3861,-0.0048
6.3889,0.0077
6.3917,0.0016
6.3944,0.0035
6.3972,0.0025
6.4,-0.0212
6.4028,-0.0039
6.4056,0.0175
6.4083,0.0059
6.4111,-0.0002
6.4139,0.0148
6.4167,0.0063
6.4194,-0.0058
6.4222,-0.0106
6.425,-0.017
6.4278,-0.0087
6.4306,0.0042
6.4333,-0.0106
6.4361,0.0059
6.4389,-0.0048
6.4417,0.0196
6.4444,-0.0051
6.4472,-0.0068
6.45,-0.0092
6.4528,-0.0073
6.4556,0.0218
6.4583,0.0019
6.4611,0.0071
6.4639,0.0036
6.4667,0.0051
6.4694,-0.0015
6.4722,0.0012
6.475,0.0018
6.4778,0.0026
6.4806,-0.0006
6.4833,0.01
6.4861,-0.005
6.4889,-0.0066
6.4917,-0.0121
6.4944,-0.0086
6.4972,-0.0175
6.5,-0.0043
6.5028,0.0113
6.5056,-0.0016
6.5083,-0.0166
6.5111,-0.0014
6.5139,0.0181
6.5167,-0.0257
6.5194,-0.0025
6.5222,-0.0074
6.525,-0.0031
6.5278,-0.0015
6.5306,0.0164
6.5333,0.0099
6.5361,-0.0116
6.5389,-0.0019
6.5417,0.0005
6.5444,0.0098
6.5472,-0.0158
6.55,-0.0122
6.5528,-0.0032
6.5556,0.0134
6.5583,-0.0167
6.5611,-0.005
6.5639,0.0059
6.5667,0.0133
6.5694,0.024
6.5722,0.0068
6.575,0.024
6.5778,0.0258
6.5806,0.0212
6.5833,0.0533
6.5861,0.0413
6.5889,0.0452
6.5917,0.051
6.5944,0.0562
6.5972,0.0623
6.6,0.0602
6.6028,0.0606
6.6056,0.0753
6.6083,0.0913
6.6111,0.0675
6.6139,0.0726
6.6167,0.0567
6.6194,0.0817
6.6222,0.059
6.625,0.073
6.6278,0.0726
6.6306,0.0894
6.6333,0.074
6.6361,0.0681
6.6389,0.0788
6.6417,0.0785
6.6444,0.0777
6.6472,0.0701
6.65,0.075
6.6528,0.0617
6.6556,0.0649
6.6583,0.0699
6.6611,0.0588
6.6639,0.056
6.6667,0.0692
6.6694,0.0711
6.6722,0.0482
6.675,0.0587
6.6778,0.0351
6.6806,0.0579
6.6833,0.0317
6.6861,0.048
6.6889,0.0481
6.6917,0.034
6.6944,0.0116
6.6972,0.0139
6.7,0.0177
6.7028,-0.0013
6.7056,0.0061
6.7083,0.0174
6.7111,0.0076
6.7139,0.0125
6.7167,0.0083
6.7194,0.0022
6.7222,-0.0103
6.725,-0.0061
6.7278,-0.0012
6.7306,-0.0031
6.7333,0.0119
6.7361,-0.0119
6.7389,-0.0054
6.7417,-0.0037
6.7444,0.007
6.7472,-0.0158
6.75,0.0102
6.7528,0.0078
6.7556,0.0018
6.7583,0.0198
6.7611,0.0079
6.7639,0.0051
6.7667,-0.0107
6.7694,-0.0099
6.7722,0.0
6.775,-0.0051
6.7778,0.0135
6.7806,0.0043
6.7833,0.0071
6.7861,-0.0306
6.7889,-0.0422
6.7917,-0.0271
6.7944,-0.024
6.7972,-0.0393
6.8,-0.0132
6.8028,-0.0076
6.8056,0.0781
6.8083,0.2056
6.8111,0.292
6.8139,0.3919
6.8167,0.4763
6.8194,0.5577
6.8222,0.6194
6.825,0.6909
6.8278,0.7155
6.8306,0.7573
6.8333,0.7732
6.8361,0.8092
6.8389,0.7948
6.8417,0.7712
6.8444,0.7544
6.8472,0.7016
6.85,0.6463
6.8528,0.5841
6.8556,0.4825
6.8583,0.4111
6.8611,0.3185
6.8639,0.2328
6.8667,0.1164
6.8694,0.0148
6.8722,-0.0205
6.875,-0.0508
6.8778,-0.0559
6.8806,-0.0818
6.8833,-0.1022
6.8861,-0.1116
6.8889,-0.1203
6.8917,-0.1211
6.8944,-0.1024
6.8972,-0.1281
6.9,-0.1101
6.9028,-0.0855
6.9056,-0.0883
6.9083,-0.0818
6.9111,-0.0218
6.9139,-0.0068
6.9167,-0.0067
6.9194,-0.0067
6.9222,0.0015
6.925,0.0095
6.9278,-0.0058
6.9306,-0.0059
6.9333,-0.0224
6.9361,-0.0011
6.9389,-0.0039
6.9417,0.0181
6.9444,-0.0015
6.9472,-0.0169
6.95,0.014
6.9528,-0.0141
6.9556,0.0102
6.9583,0.003
6.9611,-0.0019
6.9639,-0.003
6.9667,0.0003
6.9694,0.0075
6.9722,-0.0097
6.975,-0.0035
6.9778,-0.0135
6.9806,-0.0076
6.9833,-0.0144
6.9861,-0.0128
6.9889,-0.0135
6.9917,0.0022
6.9944,0.0024
6.9972,0.0161
7.0,-0.0114
7.0028,-0.008
7.0056,0.0032
7.0083,0.006
7.0111,0.0001
7.0139,0.009
7.0167,-0.0081
7.0194,-0.0024
7.0222,-0.0039
7.025,0.01
7.0278,-0.0014
7.0306,0.017
7.0333,0.0236
7.0361,0.0272
7.0389,0.0198
7.0417,0.0448
7.0444,0.0419
7.0472,0.0594
7.05,0.0558
7.0528,0.071
7.0556,0.0654
7.0583,0.0643
7.0611,0.0844
7.0639,0.0728
7.0667,0.0883
7.0694,0.0688
7.0722,0.0937
7.075,0.0791
7.0778,0.1036
7.0806,0.1112
7.0833,0.1106
7.0861,0.1171
7.0889,0.1241
7.0917,0.1232
7.0944,0.1134
7.0972,0.1257
7.1,0.1345
7.1028,0.1442
7.1056,0.1126
7.1083,0.1406
7.1111,0.1355
7.1139,0.1434
7.1167,0.1632
7.1194,0.1344
7.1222,0.1653
7.125,0.1411
7.1278,0.155
7.1306,0.1573
7.1333,0.1633
7.1361,0.1504
7.1389,0.1571
7.1417,0.1401
7.1444,0.1638
7.1472,0.1496
7.15,0.1293
7.1528,0.1318
7.1556,0.1431
7.1583,0.1431
7.1611,0.1231
7.1639,0.1262
7.1667,0.1186
7.1694,0.1371
7.1722,0.1368
7.175,0.1417
7.1778,0.1089
7.1806,0.1295
7.1833,0.1205
7.1861,0.1202
7.1889,0.0947
7.1917,0.0888
7.1944,0.113
7.1972,0.1125
7.2,0.0792
7.2028,0.0844
7.2056,0.11
7.2083,0.0767
7.2111,0.0723
7.2139,0.069
7.2167,0.0593
7.2194,0.0547
7.2222,0.0448
7.225,0.0628
7.2278,0.057
7.2306,0.0344
7.2333,0.028
7.2361,0.0204
7.2389,0.0157
7.2417,0.0099
7.2444,0.0072
7.2472,0.0086
7.25,0.0025
7.2528,-0.0027
7.2556,-0.0026
7.2583,0.0073
7.2611,-0.0057
7.2639,0.0023
7.2667,0.0121
7.2694,-0.0025
7.2722,-0.0137
7.275,-0.0054
7.2778,0.0033
7.2806,0.0034
7.2833,-0.0123
7.2861,-0.01
7.2889,0.0005
7.2917,0.0125
7.2944,-0.0173
7.2972,-0.0068
7.3,-0.0017
7.3028,0.0008
7.3056,0.0098
7.3083,-0.0087
7.3111,-0.0045
7.3139,0.0021
7.3167,-0.0218
7.3194,-0.0112
7.3222,-0.0056
7.325,0.0048
7.3278,-0.0034
7.3306,-0.0073
7.3333,-0.0032
7.3361,-0.0063
7.3389,-0.0015
7.3417,-0.0009
7.3444,-0.0073
7.3472,0.0109
7.35,-0.0008
7.3528,0.0134
7.3556,0.0068
7.3583,0.0214
7.3611,-0.0047
7.3639,-0.0065
7.3667,-0.021
7.3694,-0.0141
7.3722,0.0198
7.375,0.0103
7.3778,0.0113
7.3806,0.0123
7.3833,-0.0077
7.3861,-0.0001
7.3889,0.0092
7.3917,0.0122
7.3944,-0.0038
7.3972,0.0015
7.4,-0.0003
7.4028,-0.0007
7.4056,0.011
7.4083,-0.0117
7.4111,-0.0056
7.4139,0.0039
7.4167,-0.0061
7.4194,0.0275
7.4222,-0.0176
7.425,-0.0052
7.4278,-0.005
7.4306,-0.0008
7.4333,0.0095
7.4361,0.0099
7.4389,0.0174
7.4417,-0.0049
7.4444,0.0042
7.4472,-0.0162
7.45,-0.0117
7.4528,-0.0017
7.4556,0.0091
7.4583,0.0105
7.4611,0.001
7.4639,-0.004
7.4667,0.006
7.4694,0.0065
7.4722,-0.0015
7.475,0.0028
7.4778,-0.0092
7.4806,-0.0042
7.4833,0.0072
7.4861,-0.007
7.4889,-0.008
7.4917,0.0217
7.4944,-0.0091
7.4972,0.004
7.5,-0.0008
7.5028,-0.0092
7.5056,-0.0001
7.5083,-0.0056
7.5111,0.0083
7.5139,0.0019
7.5167,-0.014
7.5194,-0.0094
7.5222,-0.029
7.525,-0.0201
7.5278,0.0043
7.5306,-0.0142
7.5333,-0.0129
7.5361,-0.0147
7.5389,0.0029
7.5417,0.0082
7.5444,-0.0122
7.5472,-0.0049
7.55,0.0106
7.5528,-0.0065
7.5556,0.0006
7.5583,0.0187
7.5611,0.0051
7.5639,0.0201
7.5667,-0.0076
7.5694,-0.0073
7.5722,-0.0129
7.575,-0.002
7.5778,0.0074
7.5806,-0.0053
7.5833,0.0051
7.5861,0.0043
7.5889,-0.0064
7.5917,0.0017
7.5944,0.0118
7.5972,0.0061
7.6,0.0069
7.6028,0.0093
7.6056,-0.008
7.6083,-0.0148
7.6111,-0.007
7.6139,-0.0214
7.6167,0.0109
7.6194,0.0071
7.6222,0.0058
7.625,0.0066
7.6278,-0.0014
7.6306,-0.0154
7.6333,0.0164
7.6361,-0.0018
7.6389,-0.0052
7.6417,0.0047
7.6444,0.0056
7.6472,0.0104
7.65,0.0076
7.6528,0.0132
7.6556,-0.0073
7.6583,-0.0168
7.6611,0.0044
7.6639,0.0065
7.6667,0.023
7.6694,0.0141
7.6722,-0.0033
7.675,0.0067
7.6778,0.0198
7.6806,0.0144
7.6833,0.022
7.6861,0.0206
7.6889,0.0265
7.6917,0.0186
7.6944,0.0359
7.6972,0.0463
7.7,0.0633
7.7028,0.0456
7.7056,0.0497
7.7083,0.0415
7.7111,0.0713
7.7139,0.0673
7.7167,0.0602
7.7194,0.0892
7.7222,0.0739
7.725,0.0699
7.7278,0.0814
7.7306,0.0781
7.7333,0.0637
7.7361,0.0822
7.7389,0.0735
7.7417,0.0774
7.7444,0.0909
7.7472,0.0857
7.75,0.0667
7.7528,0.0796
7.7556,0.0449
7.7583,0.0893
7.7611,0.0693
7.7639,0.0628
7.7667,0.0815
7.7694,0.0481
7.7722,0.0834
7.775,0.0443
7.7778,0.0482
7.7806,0.0483
7.7833,0.0458
7.7861,0.0323
7.7889,0.0532
7.7917,0.0345
7.7944,0.041
7.7972,0.037
7.8,0.0215
7.8028,0.0215
7.8056,0.0289
7.8083,0.0077
7.8111,0.0002
7.8139,-0.0079
7.8167,-0.0079
7.8194,0.0011
7.8222,0.0025
7.825,0.0054
7.8278,-0.016
7.8306,-0.0085
7.8333,-0.0124
7.8361,0.0033
7.8389,-0.0007
7.8417,-0.0074
7.8444,-0.0045
7.8472,-0.0014
7.85,0.0054
7.8528,0.0164
7.8556,0.001
7.8583,-0.0011
7.8611,-0.0012
7.8639,-0.0124
7.8667,-0.0044
7.8694,-0.0111
7.8722,-0.0131
7.875,-0.0154
7.8778,0.0129
7.8806,0.0116
7.8833,0.0053
7.8861,-0.0004
7.8889,-0.029
7.8917,-0.0503
7.8944,-0.034
7.8972,-0.0247
7.9,-0.0099
7.9028,0.005
7.9056,0.0895
7.9083,0.2142
7.9111,0.2994
7.9139,0.4253
7.9167,0.4847
7.9194,0.5797
7.9222,0.6535
7.925,0.7027
7.9278,0.741
7.9306,0.7894
7.9333,0.8043
7.9361,0.7878
7.9389,0.7734
7.9417,0.7506
7.9444,0.7049
7.9472,0.6782
7.95,0.6153
7.9528,0.5039
7.9556,0.4231
7.9583,0.3235
7.9611,0.2162
7.9639,0.1205
7.9667,0.0222
7.9694,-0.0218
7.9722,-0.041
7.975,-0.0545
7.9778,-0.0985
7.9806,-0.1061
7.9833,-0.1267
7.9861,-0.1084
7.9889,-0.11
7.9917,-0.1194
7.9944,-0.1084
7.9972,-0.0724
8.0,-0.0736
8.0028,-0.0634
8.0056,-0.0611
8.0083,-0.013
8.0111,0.0044
8.0139,-0.0099
8.0167,0.0021
8.0194,0.0081
8.0222,0.0015
8.025,0.0005
8.0278,0.011
8.0306,0.007
8.0333,0.0047
8.0361,-0.007
8.0389,0.0008
8.0417,-0.005
8.0444,0.011
8.0472,-0.0021
8.05,-0.0001
8.0528,-0.0078
8.0556,0.0238
8.0583,-0.0083
8.0611,0.0022
8.0639,-0.0235
8.0667,0.0018
8.0694,-0.0181
8.0722,-0.0166
8.075,-0.0111
8.0778,-0.014
8.0806,0.0014
8.0833,0.0056
8.0861,0.0079
8.0889,0.0008
8.0917,0.0071
8.0944,0.0125
8.0972,-0.0042
8.1,0.006
8.1028,0.0066
8.1056,-0.0119
8.1083,0.0079
8.1111,0.0106
8.1139,-0.0139
8.1167,0.0197
8.1194,0.0167
8.1222,0.019
8.125,0.0193
8.1278,0.0327
8.1306,0.0492
8.1333,0.0487
8.1361,0.0432
8.1389,0.0679
8.1417,0.046
8.1444,0.0679
8.1472,0.0477
8.15,0.0928
8.1528,0.083
8.1556,0.0896
8.1583,0.0738
8.1611,0.0849
8.1639,0.1019
8.1667,0.0962
8.1694,0.1084
8.1722,0.1148
8.175,0.1206
8.1778,0.1145
8.1806,0.1286
8.1833,0.1219
8.1861,0.1371
8.1889,0.1263
8.1917,0.1477
8.1944,0.1457
8.1972,0.1353
8.2,0.1427
8.2028,0.142
8.2056,0.1495
8.2083,0.1356
8.2111,0.1368
8.2139,0.1608
8.2167,0.1518
8.2194,0.1387
8.2222,0.1339
8.225,0.1613
8.2278,0.155
8.2306,0.1558
8.2333,0.1628
8.2361,0.145
8.2389,0.1361
8.2417,0.1517
8.2444,0.1424
8.2472,0.1277
8.25,0.1381
8.2528,0.1358
8.2556,0.1421
8.2583,0.1445
8.2611,0.1277
8.2639,0.1207
8.2667,0.1085
8.2694,0.1216
8.2722,0.0991
8.275,0.0781
8.2778,0.0964
8.2806,0.0923
8.2833,0.0912
8.2861,0.0838
8.2889,0.0684
8.2917,0.0713
8.2944,0.0641
8.2972,0.0745
8.3,0.0457
8.3028,0.0481
8.3056,0.0578
8.3083,0.0303
8.3111,0.0337
8.3139,0.0407
8.3167,0.0148
8.3194,0.0242
8.3222,0.0162
8.325,-0.0013
8.3278,0.008
8.3306,0.0064
8.3333,0.0158
8.3361,0.0044
8.3389,-0.0013
8.3417,-0.009
8.3444,-0.0013
8.3472,0.0025
8.35,-0.0144
8.3528,0.0088
8.3556,-0.0016
8.3583,-0.0112
8.3611,0.0022
8.3639,0.006
8.3667,0.0061
8.3694,-0.0013
8.3722,-0.0091
8.375,-0.004
8.3778,0.0136
8.3806,0.0046
8.3833,0.0236
8.3861,0.0125
8.3889,0.003
8.3917,0.0128
8.3944,0.0069
8.3972,0.0117
8.4,0.0058
8.4028,-0.0141
8.4056,0.0184
8.4083,-0.0019
8.4111,-0.0035
8.4139,-0.0028
8.4167,0.0108
8.4194,0.0063
8.4222,0.0103
8.425,-0.0121
8.4278,0.0102
8.4306,0.0025
8.4333,0.0014
8.4361,0.0048
8.4389,-0.0194
8.4417,-0.0063
8.4444,-0.0137
8.4472,-0.0081
8.45,0.0079
8.4528,-0.0236
8.4556,-0.0001
8.4583,-0.0191
8.4611,0.0039
8.4639,0.0173
8.4667,0.0014
8.4694,-0.0094
8.4722,0.0047
8.475,0.0029
8.4778,-0.0231
8.4806,-0.0083
8.4833,0.0003
8.4861,0.0061
8.4889,-0.0028
8.4917,0.0065
8.4944,0.0042
8.4972,0.0087
8.5,-0.0067
8.5028,0.0066
8.5056,0.0089
8.5083,0.0036
8.5111,-0.0142
8.5139,0.0112
8.5167,-0.0052
8.5194,-0.0223
8.5222,0.0082
8.525,-0.0116
8.5278,-0.0063
8.5306,0.0033
8.5333,0.0095
8.5361,-0.0033
8.5389,0.0054
8.5417,-0.0018
8.5444,0.0105
8.5472,0.0243
8.55,0.0115
8.5528,-0.0245
8.5556,0.0138
8.5583,0.0024
8.5611,0.0014
8.5639,-0.0017
8.5667,-0.0186
8.5694,-0.0025
8.5722,-0.0073
8.575,0.0016
8.5778,-0.0038
8.5806,0.0212
8.5833,-0.006
8.5861,0.0193
8.5889,-0.0047
8.5917,0.0063
8.5944,0.0153
8.5972,0.0128
8.6,-0.0033
8.6028,0.0003
8.6056,0.0021
8.6083,0.0054
8.6111,0.0021
8.6139,-0.0088
8.6167,0.0012
8.6194,-0.0022
8.6222,-0.0038
8.625,-0.012
8.6278,-0.006
8.6306,-0.0166
8.6333,0.0044
8.6361,0.0033
8.6389,0.0059
8.6417,-0.0079
8.6444,-0.0053
8.6472,-0.0061
8.65,0.0071
8.6528,-0.0004
8.6556,-0.0022
8.6583,-0.0104
8.6611,-0.0145
8.6639,0.0016
8.6667,-0.0118
8.6694,-0.0183
8.6722,0.0054
8.675,-0.0203
8.6778,0.0068
8.6806,-0.0124
8.6833,-0.0131
8.6861,-0.0108
8.6889,-0.0077
8.6917,-0.0038
8.6944,-0.0109
8.6972,-0.0071
8.7,0.022
8.7028,0.0025
8.7056,0.0058
8.7083,-0.0022
8.7111,-0.0181
8.7139,0.0056
8.7167,-0.014
8.7194,0.0017
8.7222,-0.0054
8.725,0.0138
8.7278,0.0031
8.7306,-0.0073
8.7333,0.0252
8.7361,0.027
8.7389,0.027
8.7417,0.0146
8.7444,0.0184
8.7472,0.0343
8.75,0.0402
8.7528,0.051
8.7556,0.0585
8.7583,0.0394
8.7611,0.0596
8.7639,0.0446
8.7667,0.0498
8.7694,0.0742
8.7722,0.0689
8.775,0.0311
8.7778,0.0789
8.7806,0.0773
8.7833,0.0858
8.7861,0.0932
8.7889,0.0854
8.7917,0.0607
8.7944,0.0771
8.7972,0.0842
8.8,0.0802
8.8028,0.0741
8.8056,0.0641
8.8083,0.0872
8.8111,0.0568
8.8139,0.063
8.8167,0.0488
8.8194,0.0691
8.8222,0.0667
8.825,0.0545
8.8278,0.0687
8.8306,0.0541
8.8333,0.0588
8.8361,0.0625
8.8389,0.0322
8.8417,0.0507
8.8444,0.0409
8.8472,0.0233
8.85,0.0279
8.8528,0.0464
8.8556,0.0156
8.8583,0.0375
8.8611,0.0204
8.8639,0.0199
8.8667,-0.0015
8.8694,-0.0018
8.8722,-0.0074
8.875,0.0096
8.8778,-0.0041
8.8806,0.0055
8.8833,0.0055
8.8861,-0.0002
8.8889,0.0218
8.8917,0.0043
8.8944,-0.0093
8.8972,0.0068
8.9,0.0213
8.9028,0.0065
8.9056,-0.0036
8.9083,0.0125
8.9111,0.0074
8.9139,-0.0132
8.9167,-0.0091
8.9194,0.0197
8.9222,0.0153
8.925,-0.002
8.9278,-0.0001
8.9306,-0.0091
8.9333,-0.0392
8.9361,-0.0348
8.9389,-0.0387
8.9417,-0.041
8.9444,-0.0095
8.9472,0.0396
8.95,0.1557
8.9528,0.252
8.9556,0.3683
8.9583,0.466
8.9611,0.558
8.9639,0.6209
8.9667,0.6996
8.9694,0.7504
8.9722,0.7979
8.975,0.7941
8.9778,0.7733
8.9806,0.7657
8.9833,0.7393
8.9861,0.6988
8.9889,0.625
8.9917,0.583
8.9944,0.4656
8.9972,0.3816
9.0,0.254
9.0028,0.1493
9.0056,0.0226
9.0083,-0.0226
9.0111,-0.0616
9.0139,-0.078
9.0167,-0.0785
9.0194,-0.1043
9.0222,-0.1109
9.025,-0.1049
9.0278,-0.1251
9.0306,-0.088
9.0333,-0.113
9.0361,-0.0822
9.0389,-0.0603
9.0417,-0.0194
9.0444,0.0002
9.0472,-0.0074
9.05,-0.0038
9.0528,0.0111
9.0556,0.0026
9.0583,-0.0119
9.0611,-0.0059
9.0639,0.0106
9.0667,-0.0026
9.0694,0.0054
9.0722,-0.0043
9.075,0.01
9.0778,0.0036
9.0806,-0.0057
9.0833,-0.0178
9.0861,0.0009
9.0889,-0.0013
9.0917,-0.0123
9.0944,-0.0194
9.0972,-0.0114
9.1,-0.0076
9.1028,-0.0103
9.1056,-0.0096
9.1083,0.013
9.1111,-0.0005
9.1139,-0.0036
9.1167,-0.0049
9.1194,0.0096
9.1222,-0.0059
9.125,-0.0061
9.1278,-0.0115
9.1306,0.0002
9.1333,-0.0041
9.1361,0.0056
9.1389,0.0113
9.1417,0.0074
9.1444,-0.0111
9.1472,0.0013
9.15,0.0205
9.1528,0.0222
9.1556,0.0232
9.1583,0.0305
9.1611,0.0408
9.1639,0.0504
9.1667,0.0577
9.1694,0.0509
9.1722,0.0581
9.175,0.0587
9.1778,0.0766
9.1806,0.0767
9.1833,0.0927
9.1861,0.097
9.1889,0.0974
9.1917,0.1134
9.1944,0.0866
9.1972,0.1129
9.2,0.1242
9.2028,0.126
9.2056,0.1126
9.2083,0.1231
9.2111,0.1411
9.2139,0.1241
9.2167,0.1421
9.2194,0.1341
9.2222,0.1336
9.225,0.1485
9.2278,0.1625
9.2306,0.1484
9.2333,0.1521
9.2361,0.1355
9.2389,0.1638
9.2417,0.1413
9.2444,0.1428
9.2472,0.1586
9.25,0.1425
9.2528,0.1457
9.2556,0.1536
9.2583,0.1478
9.2611,0.1459
9.2639,0.137
9.2667,0.1427
9.2694,0.1582
9.2722,0.1455
9.275,0.1189
9.2778,0.1271
9.2806,0.1297
9.2833,0.1297
9.2861,0.1239
9.2889,0.1118
9.2917,0.1041
9.2944,0.1276
9.2972,0.1045
9.3,0.1107
9.3028,0.0939
9.3056,0.0934
9.3083,0.0864
9.3111,0.0604
9.3139,0.0775
9.3167,0.0611
9.3194,0.0371
9.3222,0.0437
9.325,0.034
9.3278,0.0386
9.3306,0.021
9.3333,0.025
9.3361,0.0187
9.3389,0.0247
9.3417,0.0152
9.3444,-0.0208
9.3472,0.0014
9.35,-0.0147
9.3528,0.0078
9.3556,0.0044
9.3583,0.0179
9.3611,0.0059
9.3639,0.0282
9.3667,-0.002
9.3694,0.0092
9.3722,-0.0071
9.375,-0.0004
9.3778,0.0186
9.3806,-0.0056
9.3833,0.0088
9.3861,0.0161
9.3889,0.0054
9.3917,-0.0075
9.3944,-0.0048
9.3972,-0.0067
9.4,0.0059
9.4028,0.0059
9.4056,0.0085
9.4083,0.0038
9.4111,0.0087
9.4139,-0.0139
9.4167,0.0069
9.4194,-0.0113
9.4222,0.0055
9.425,-0.0085
9.4278,0.0035
9.4306,-0.0065
9.4333,-0.0128
9.4361,0.0073
9.4389,0.0045
9.4417,-0.0185
9.4444,-0.0015
9.4472,0.01
9.45,0.0043
9.4528,0.0151
9.4556,0.0031
9.4583,0.017
9.4611,-0.0248
9.4639,-0.0138
9.4667,-0.0143
9.4694,-0.0018
9.4722,0.0075
9.475,-0.0105
9.4778,0.0039
9.4806,-0.0008
9.4833,-0.0105
9.4861,-0.0066
9.4889,0.0102
9.4917,0.0104
9.4944,0.0001
9.4972,-0.0083
9.5,-0.013
9.5028,0.0176
9.5056,-0.0152
9.5083,-0.0054
9.5111,0.0163
9.5139,0.0127
9.5167,0.0105
9.5194,-0.0125
9.5222,0.0099
9.525,-0.0183
9.5278,0.0078
9.5306,-0.0011
9.5333,0.0014
9.5361,0.0029
9.5389,-0.0117
9.5417,-0.0128
9.5444,0.0014
9.5472,0.0005
9.55,0.0162
9.5528,0.0039
9.5556,0.0114
9.5583,-0.0045
9.5611,-0.0032
9.5639,-0.0115
9.5667,-0.0033
9.5694,-0.0004
9.5722,-0.0078
9.575,0.0027
9.5778,-0.0024
9.5806,-0.0076
9.5833,0.0143
9.5861,0.0105
9.5889,-0.0108
9.5917,-0.0122
9.5944,0.0128
9.5972,0.0094
9.6,-0.0087
9.6028,-0.0128
9.6056,0.0037
9.6083,-0.0054
9.6111,-0.0038
9.6139,-0.0202
9.6167,0.0155
9.6194,0.0123
9.6222,-0.0143
9.625,0.0098
9.6278,-0.0002
9.6306,-0.0085
9.6333,-0.0077
9.6361,0.005
9.6389,-0.0116
9.6417,-0.0071
9.6444,-0.0035
9.6472,0.0012
9.65,0.0024
9.6528,0.0004
9.6556,0.0066
9.6583,0.0041
9.6611,0.0127
9.6639,-0.0081
9.6667,-0.0052
9.6694,0.006
9.6722,-0.003
9.675,0.0008
9.6778,-0.002
9.6806,0.015
9.6833,0.0016
9.6861,-0.0196
9.6889,-0.0144
9.6917,-0.0022
9.6944,-0.0064
9.6972,0.0263
9.7,-0.0042
9.7028,-0.0083
9.7056,0.0043
9.7083,0.0036
9.7111,0.0017
9.7139,0.0014
9.7167,-0.0094
9.7194,-0.0093
9.7222,-0.0014
9.725,0.0183
9.7278,0.0001
9.7306,0.0237
9.7333,0.0142
9.7361,0.0156
9.7389,0.0439
9.7417,0.0422
9.7444,0.0403
9.7472,0.033
9.75,0.049
9.7528,0.0627
9.7556,0.0679
9.7583,0.0509
9.7611,0.0698
9.7639,0.0516
9.7667,0.0702
9.7694,0.0939
9.7722,0.0705
9.775,0.0639
9.7778,0.0922
9.7806,0.0768
9.7833,0.0911
9.7861,0.0818
9.7889,0.0856
9.7917,0.0698
9.7944,0.0794
9.7972,0.0876
9.8,0.0698
9.8028,0.0847
9.8056,0.0835
9.8083,0.073
9.8111,0.0624
9.8139,0.0783
9.8167,0.0662
9.8194,0.0621
9.8222,0.0509
9.825,0.0566
9.8278,0.0505
9.8306,0.0578
9.8333,0.037
9.8361,0.0589
9.8389,0.0513
9.8417,0.0461
9.8444,0.0152
9.8472,0.0308
9.85,0.0326
9.8528,0.0224
9.8556,0.0054
9.8583,-0.0028
9.8611,-0.011
9.8639,-0.0078
9.8667,0.0276
9.8694,0.0002
9.8722,0.009
9.875,0.001
9.8778,0.008
9.8806,-0.012
9.8833,-0.0083
9.8861,-0.0018
9.8889,-0.0053
9.8917,0.0062
9.8944,-0.0071
9.8972,-0.0011
9.9,0.0021
9.9028,0.0105
9.9056,-0.0035
9.9083,0.0064
9.9111,-0.003
9.9139,0.001
9.9167,0.0039
9.9194,0.0055
9.9222,-0.0379
9.925,-0.0216
9.9278,-0.0261
9.9306,-0.0615
9.9333,-0.0437
9.9361,-0.0263
9.9389,0.006
9.9417,0.0784
9.9444,0.2034
9.9472,0.3146
9.95,0.411
9.9528,0.5321
9.9556,0.6001
9.9583,0.6642
9.9611,0.7336
9.9639,0.7625
9.9667,0.7812
9.9694,0.7879
9.9722,0.7832
9.975,0.7524
9.9778,0.7266
9.9806,0.6681
9.9833,0.5772
9.9861,0.5064
9.9889,0.4022
9.9917,0.3039
9.9944,0.1845
9.9972,0.0579
10.0,-0.0102
10.0028,-0.0248
10.0056,-0.0766
10.0083,-0.0914
10.0111,-0.1262
10.0139,-0.1136
10.0167,-0.1357
10.0194,-0.115
10.0222,-0.1182
10.025,-0.1115
10.0278,-0.0994
10.0306,-0.0691
10.0333,-0.0393
10.0361,-0.0171
10.0389,-0.0086
10.0417,0.0071
10.0444,-0.0148
10.0472,0.0043
10.05,0.0057
10.0528,-0.0002
10.0556,-0.0179
10.0583,-0.0089
10.0611,-0.0113
10.0639,0.0225
10.0667,0.0046
10.0694,-0.0005
10.0722,0.0148
10.075,0.0089
10.0778,0.0093
10.0806,0.0041
10.0833,-0.0025
10.0861,0.0188
10.0889,0.0057
10.0917,0.0006
10.0944,-0.0167
10.0972,0.0077
10.1,-0.0097
10.1028,-0.0026
10.1056,0.0203
10.1083,-0.0097
10.1111,0.0077
10.1139,0.01
10.1167,-0.0165
10.1194,-0.0087
10.1222,0.0164
10.125,0.0081
10.1278,-0.0027
10.1306,-0.0334
10.1333,-0.0043
10.1361,0.0002
10.1389,0.0213
10.1417,0.0071
10.1444,0.0084
10.1472,0.0292
10.15,0.03
10.1528,0.0218
10.1556,0.0282
10.1583,0.0481
10.1611,0.0626
10.1639,0.0851
10.1667,0.0677
10.1694,0.0756
10.1722,0.078
10.175,0.0942
10.1778,0.1069
10.1806,0.0803
10.1833,0.1046
10.1861,0.1038
10.1889,0.1162
10.1917,0.1149
10.1944,0.1136
10.1972,0.134
10.2,0.1149
10.2028,0.1431
10.2056,0.1413
10.2083,0.1256
10.2111,0.1471
10.2139,0.1509
10.2167,0.1432
10.2194,0.1419
10.2222,0.1458
10.225,0.1328
10.2278,0.1434
10.2306,0.1531
10.2333,0.1459
10.2361,0.1502
10.2389,0.1524
10.2417,0.1434
10.2444,0.1446
10.2472,0.1536
10.25,0.1604
10.2528,0.1398
10.2556,0.1316
10.2583,0.1478
10.2611,0.1489
10.2639,0.1282
10.2667,0.1374
10.2694,0.1175
10.2722,0.1361
10.275,0.1212
10.2778,0.1331
10.2806,0.1151
10.2833,0.1145
10.2861,0.0924
10.2889,0.0958
10.2917,0.1031
10.2944,0.0918
10.2972,0.0713
10.3,0.0866
10.3028,0.0744
10.3056,0.0858
10.3083,0.0651
10.3111,0.0558
10.3139,0.0483
10.3167,0.0512
10.3194,0.0486
10.3222,0.0291
10.325,0.0201
10.3278,0.0167
10.3306,0.0231
10.3333,-0.0132
10.3361,-0.0091
10.3389,-0.0002
10.3417,0.0111
10.3444,0.0092
10.3472,-0.0006
10.35,-0.0026
10.3528,0.012
10.3556,0.0061
10.3583,0.0053
10.3611,-0.0013
10.3639,0.0012
10.3667,0.0062
10.3694,-0.0045
10.3722,0.0077
10.375,0.0204
10.3778,0.0108
10.3806,-0.0094
10.3833,0.0149
10.3861,0.0161
10.3889,-0.013
10.3917,-0.0061
10.3944,-0.002
10.3972,-0.0032
10.4,-0.0125
10.4028,-0.0066
10.4056,-0.0102
10.4083,-0.0049
10.4111,-0.0034
10.4139,0.009
10.4167,-0.0119
10.4194,-0.0107
10.4222,0.0202
10.425,-0.0002
10.4278,0.0037
10.4306,-0.0041
10.4333,0.0079
10.4361,0.0095
10.4389,-0.0199
10.4417,-0.0035
10.4444,0.0087
10.4472,0.0121
10.45,-0.0035
10.4528,-0.0083
10.4556,-0.0164
10.4583,-0.0111
10.4611,0.0018
10.4639,0.0205
10.4667,-0.0077
10.4694,-0.0134
10.4722,0.0103
10.475,0.0069
10.4778,0.0129
10.4806,-0.0093
10.4833,-0.0074
10.4861,-0.0122
10.4889,-0.0184
10.4917,-0.0001
10.4944,0.0178
10.4972,0.0004
10.5,0.0118
10.5028,-0.0155
10.5056,-0.0022
10.5083,-0.0004
10.5111,-0.0016
10.5139,0.0076
10.5167,-0.0069
10.5194,-0.0033
10.5222,-0.001
10.525,0.0059
10.5278,-0.0107
10.5306,-0.0035
10.5333,0.0044
10.5361,-0.0088
10.5389,0.0086
10.5417,-0.0128
10.5444,-0.0072
10.5472,0.0147
10.55,0.0073
10.5528,0.0001
10.5556,-0.0021
10.5583,0.0079
10.5611,-0.0085
10.5639,0.0108
10.5667,0.0054
10.5694,0.0087
10.5722,0.0016
10.575,-0.0016
10.5778,0.006
10.5806,-0.0073
10.5833,0.005
10.5861,-0.0211
10.5889,-0.0049
10.5917,-0.0089
10.5944,-0.0005
10.5972,0.0075
10.6,-0.0114
10.6028,-0.0009
10.6056,0.0133
10.6083,0.0043
10.6111,-0.0215
10.6139,-0.0071
10.6167,-0.0133
10.6194,-0.0119
10.6222,-0.0142
10.625,-0.0012
10.6278,-0.0098
10.6306,0.0129
10.6333,0.0064
10.6361,-0.01
10.6389,-0.0003
10.6417,-0.0036
10.6444,0.0096
10.6472,-0.0103
10.65,-0.0048
10.6528,-0.0003
10.6556,0.0167
10.6583,-0.0021
10.6611,0.0161
10.6639,0.0017
10.6667,0.0008
10.6694,-0.0024
10.6722,-0.0123
10.675,0.0182
10.6778,0.007
10.6806,0.0024
10.6833,0.0144
10.6861,-0.017
10.6889,-0.001
10.6917,-0.0008
10.6944,-0.0014
10.6972,-0.009
10.7,0.0064
10.7028,-0.0009
10.7056,0.0006
10.7083,-0.0013
10.7111,0.0107
10.7139,0.0166
10.7167,0.0055
10.7194,0.016
10.7222,0.034
10.725,0.0222
10.7278,0.0286
10.7306,0.0358
10.7333,0.0336
10.7361,0.0427
10.7389,0.0646
10.7417,0.034
10.7444,0.0475
10.7472,0.0792
10.75,0.0591
10.7528,0.0652
10.7556,0.0839
10.7583,0.0712
10.7611,0.0708
10.7639,0.0659
10.7667,0.0525
10.7694,0.0808
10.7722,0.0816
10.775,0.0768
10.7778,0.0717
10.7806,0.082
10.7833,0.0834
10.7861,0.0659
10.7889,0.0889
10.7917,0.0803
10.7944,0.0808
10.7972,0.0729
10.8,0.076
10.8028,0.0669
10.8056,0.0618
10.8083,0.0733
10.8111,0.0583
10.8139,0.0728
10.8167,0.0647
10.8194,0.049
10.8222,0.0306
10.825,0.0396
10.8278,0.0142
10.8306,0.0334
10.8333,0.0264
10.8361,0.0359
10.8389,0.0069
10.8417,0.0108
10.8444,0.0059
10.8472,-0.0139
10.85,-0.0174
10.8528,-0.0028
10.8556,0.0101
10.8583,0.0261
10.8611,-0.0196
10.8639,0.0181
10.8667,0.0032
10.8694,-0.0116
10.8722,-0.0066
10.875,0.017
10.8778,0.0033
10.8806,0.0014
10.8833,0.0184
10.8861,-0.0105
10.8889,-0.0041
10.8917,0.0017
10.8944,0.013
10.8972,0.0002
10.9,0.0038
10.9028,-0.0024
10.9056,-0.0155
10.9083,0.0024
10.9111,-0.019
10.9139,-0.0447
10.9167,-0.0481
10.9194,-0.0426
10.9222,-0.0148
10.925,0.0038
10.9278,0.0281
10.9306,0.1632
10.9333,0.2617
10.9361,0.3738
10.9389,0.4702
10.9417,0.5551
10.9444,0.6251
10.9472,0.6988
10.95,0.7682
10.9528,0.7909
10.9556,0.7936
10.9583,0.7998
10.9611,0.7703
10.9639,0.7403
10.9667,0.7059
10.9694,0.6349
10.9722,0.5394
10.975,0.4395
10.9778,0.3494
10.9806,0.2545
10.9833,0.1489
10.9861,0.0118
10.9889,-0.0265
10.9917,-0.0413
10.9944,-0.0722
10.9972,-0.0717
11.0,-0.0835
11.0028,-0.1059
11.0056,-0.1326
11.0083,-0.0957
11.0111,-0.1082
11.0139,-0.0842
11.0167,-0.0695
11.0194,-0.054
11.0222,-0.0344
11.025,0.0051
11.0278,0.0072
11.0306,0.0038
11.0333,-0.0028
11.0361,-0.0016
11.0389,0.0039
11.0417,-0.0169
11.0444,0.0052
11.0472,0.0162
11.05,0.0052
11.0528,-0.0065
11.0556,-0.0062
11.0583,-0.0244
11.0611,-0.0037
11.0639,0.0039
11.0667,0.0093
11.0694,0.0097
11.0722,0.0118
11.075,0.0154
11.0778,-0.0068
11.0806,0.0149
11.0833,0.0064
11.0861,-0.0025
11.0889,0.0038
11.0917,0.0084
11.0944,0.0059
11.0972,0.0026
11.1,-0.0088
11.1028,0.0149
11.1056,0.0001
11.1083,-0.0036
11.1111,-0.0085
11.1139,-0.0139
11.1167,-0.0104
11.1194,0.0033
11.1222,0.0078
11.125,0.0125
11.1278,0.0029
11.1306,0.0167
11.1333,0.0162
11.1361,0.0129
11.1389,0.0186
11.1417,0.0411
11.1444,0.0466
11.1472,0.0595
11.15,0.0638
11.1528,0.0543
11.1556,0.0841
11.1583,0.0707
11.1611,0.0928
11.1639,0.0905
11.1667,0.0909
11.1694,0.105
11.1722,0.098
11.175,0.1048
11.1778,0.1165
11.1806,0.1388
11.1833,0.1092
11.1861,0.1262
11.1889,0.1312
11.1917,0.1209
11.1944,0.1298
11.1972,0.1366
11.2,0.1309
11.2028,0.1613
11.2056,0.1323
11.2083,0.1329
11.2111,0.1446
11.2139,0.1494
11.2167,0.1321
11.2194,0.1512
11.2222,0.1418
11.225,0.1512
11.2278,0.1395
11.2306,0.1516
11.2333,0.138
11.2361,0.1519
11.2389,0.1618
11.2417,0.1425
11.2444,0.1503
11.2472,0.1442
11.25,0.1375
11.2528,0.1294
11.2556,0.1523
11.2583,0.1275
11.2611,0.105
11.2639,0.1061
11.2667,0.1251
11.2694,0.1125
11.2722,0.1177
11.275,0.1081
11.2778,0.0864
11.2806,0.0862
11.2833,0.078
11.2861,0.0928
11.2889,0.0837
11.2917,0.068
11.2944,0.0705
11.2972,0.0442
11.3,0.0357
11.3028,0.056
11.3056,0.035
11.3083,0.0407
11.3111,0.0227
11.3139,0.0256
11.3167,0.024
11.3194,-0.0078
11.3222,0.0053
11.325,0.0082
11.3278,-0.004
11.3306,-0.0039
11.3333,0.015
11.3361,-0.0016
11.3389,0.0011
11.3417,0.0101
11.3444,-0.0001
11.3472,-0.0024
11.35,0.0211
11.3528,-0.0088
11.3556,0.0115
11.3583,0.0027
11.3611,-0.0051
11.3639,0.0168
11.3667,-0.0058
11.3694,-0.013
11.3722,-0.0093
11.375,0.0183
11.3778,0.0025
11.3806,0.0139
11.3833,0.0036
11.3861,0.0
11.3889,0.0006
11.3917,0.0074
11.3944,0.0031
11.3972,0.0181
11.4,0.0164
11.4028,0.0012
11.4056,0.0082
11.4083,-0.009
11.4111,0.0022
11.4139,-0.0015
11.4167,-0.0021
11.4194,-0.0019
11.4222,-0.0237
11.425,0.0235
11.4278,-0.0016
11.4306,-0.0097
11.4333,0.0041
11.4361,0.0017
11.4389,0.0034
11.4417,0.0031
11.4444,0.0033
11.4472,-0.0231
11.45,0.0029
11.4528,-0.017
11.4556,0.0083
11.4583,0.0058
11.4611,0.0159
11.4639,-0.0155
11.4667,0.0052
11.4694,-0.008
11.4722,-0.0153
11.475,0.0071
11.4778,-0.0028
11.4806,0.0041
11.4833,0.0047
11.4861,-0.0128
11.4889,-0.0075
11.4917,0.0127
11.4944,0.0007
11.4972,-0.0128
11.5,0.025
11.5028,0.0058
11.5056,0.0257
11.5083,-0.0014
11.5111,0.0076
11.5139,0.0041
11.5167,0.0278
11.5194,-0.0131
11.5222,-0.0084
11.525,0.0011
11.5278,-0.0092
11.5306,-0.0151
11.5333,-0.0142
11.5361,-0.0198
11.5389,0.0017
11.5417,-0.0093
11.5444,-0.0068
11.5472,-0.003
11.55,0.0034
11.5528,-0.0123
11.5556,-0.0161
11.5583,0.0003
11.5611,0.0096
11.5639,0.0158
11.5667,-0.0105
11.5694,0.001
11.5722,0.0098
11.575,0.006
11.5778,0.0062
11.5806,-0.0084
11.5833,0.0097
11.5861,-0.0167
11.5889,-0.0027
11.5917,-0.025
11.5944,-0.0009
11.5972,0.0148
11.6,-0.0089
11.6028,-0.0039
11.6056,-0.0124
11.6083,-0.0053
11.6111,0.0003
11.6139,-0.0121
11.6167,0.0095
11.6194,-0.0102
11.6222,0.0021
11.625,-0.0046
11.6278,0.0098
11.6306,-0.0068
11.6333,0.0125
11.6361,-0.0084
11.6389,0.0142
11.6417,-0.0012
11.6444,0.011
11.6472,-0.0053
11.65,-0.0027
11.6528,-0.005
11.6556,0.0079
11.6583,0.011
11.6611,0.0068
11.6639,0.0051
11.6667,-0.0091
11.6694,-0.002
11.6722,0.0209
11.675,0.0047
11.6778,0.0096
11.6806,0.0021
11.6833,-0.0003
11.6861,-0.0098
11.6889,0.0123
11.6917,0.0118
11.6944,-0.0206
11.6972,0.0111
11.7,0.0208
11.7028,0.0004
11.7056,0.0065
11.7083,0.0147
11.7111,0.0176
11.7139,0.0384
11.7167,0.0293
11.7194,0.0268
11.7222,0.0337
11.725,0.0459
11.7278,0.0449
11.7306,0.054
11.7333,0.0655
11.7361,0.0581
11.7389,0.058
11.7417,0.0631
11.7444,0.0572
11.7472,0.0664
11.75,0.073
11.7528,0.0739
11.7556,0.0799
11.7583,0.0866
11.7611,0.0886
11.7639,0.0724
11.7667,0.0965
11.7694,0.0776
11.7722,0.0954
11.775,0.0654
11.7778,0.0796
11.7806,0.0705
11.7833,0.0857
11.7861,0.0842
11.7889,0.0627
11.7917,0.072
11.7944,0.0794
11.7972,0.0606
11.8,0.0934
11.8028,0.0554
11.8056,0.0699
11.8083,0.0452
11.8111,0.064
11.8139,0.0489
11.8167,0.0222
11.8194,0.0485
11.8222,0.0358
11.825,0.0301
11.8278,0.0238
11.8306,0.0253
11.8333,0.0207
11.8361,-0.0051
11.8389,-0.001
11.8417,-0.0042
11.8444,-0.0096
11.8472,-0.0136
11.85,-0.0137
11.8528,-0.0124
11.8556,0.0075
11.8583,0.0044
11.8611,-0.0021
11.8639,0.007
11.8667,-0.0035
11.8694,-0.0074
11.8722,-0.012
11.875,0.0038
11.8778,-0.0198
11.8806,-0.0002
11.8833,0.002
11.8861,-0.0027
11.8889,0.0141
11.8917,0.0114
11.8944,-0.002
11.8972,0.0066
11.9,0.0102
11.9028,-0.0094
11.9056,-0.0175
11.9083,-0.0348
11.9111,-0.0219
11.9139,-0.0391
11.9167,-0.0375
11.9194,-0.0249
11.9222,-0.0058
11.925,0.0096
11.9278,0.1182
11.9306,0.2286
11.9333,0.3432
11.9361,0.4505
11.9389,0.5358
11.9417,0.6088
11.9444,0.6968
11.9472,0.7277
11.95,0.7702
11.9528,0.7837
11.9556,0.8227
11.9583,0.7863
11.9611,0.7903
11.9639,0.7286
11.9667,0.6581
11.9694,0.5698
11.9722,0.523
11.975,0.4154
11.9778,0.3149
11.9806,0.2213
11.9833,0.1091
11.9861,-0.0036
11.9889,-0.0464
11.9917,-0.0437
11.9944,-0.0973
11.9972,-0.08
12.0,-0.1164
12.0028,-0.1298
12.0056,-0.1135
12.0083,-0.1128
12.0111,-0.1008
12.0139,-0.0841
12.0167,-0.0719
12.0194,-0.0587
12.0222,-0.0303
12.025,-0.0116
12.0278,0.0207
12.0306,-0.001
12.0333,0.0074
12.0361,0.0021
12.0389,-0.0004
12.0417,0.0015
12.0444,-0.0037
12.0472,0.0067
12.05,0.0009
12.0528,0.0279
12.0556,0.0098
12.0583,-0.0156
12.0611,0.0026
12.0639,0.0066
12.0667,0.0024
12.0694,0.0018
12.0722,-0.0135
12.075,0.0171
12.0778,-0.0038
12.0806,-0.0132
12.0833,0.0054
12.0861,0.0041
12.0889,0.0245
12.0917,-0.0116
12.0944,0.006
12.0972,-0.0051
12.1,-0.0083
12.1028,-0.0096
12.1056,0.0116
12.1083,0.0027
12.1111,-0.0052
12.1139,0.0058
12.1167,0.0061
12.1194,0.0121
12.1222,-0.0033
12.125,0.0006
12.1278,0.0161
12.1306,0.008
12.1333,0.0147
12.1361,0.0165
12.1389,0.0329
12.1417,0.0346
12.1444,0.0291
12.1472,0.0493
12.15,0.0573
12.1528,0.0519
12.1556,0.0624
12.1583,0.0558
12.1611,0.0769
12.1639,0.0647
12.1667,0.0799
12.1694,0.0951
12.1722,0.0991
12.175,0.0835
12.1778,0.0949
12.1806,0.1043
12.1833,0.1128
12.1861,0.1097
12.1889,0.1216
12.1917,0.1132
12.1944,0.1399
12.1972,0.121
12.2,0.1234
12.2028,0.1355
12.2056,0.1354
12.2083,0.1285
12.2111,0.1461
12.2139,0.1367
12.2167,0.1202
12.2194,0.1497
12.2222,0.1552
12.225,0.1458
12.2278,0.1511
12.2306,0.1442
12.2333,0.1494
12.2361,0.1589
12.2389,0.142
12.2417,0.1325
12.2444,0.1605
12.2472,0.1577
12.25,0.1424
12.2528,0.1504
12.2556,0.136
12.2583,0.1295
12.2611,0.133
12.2639,0.1297
12.2667,0.134
12.2694,0.1373
12.2722,0.1259
12.275,0.1121
12.2778,0.1021
12.2806,0.1111
12.2833,0.1074
12.2861,0.1048
12.2889,0.0898
12.2917,0.0745
12.2944,0.0748
12.2972,0.0835
12.3,0.0687
12.3028,0.0687
12.3056,0.0587
12.3083,0.0442
12.3111,0.0508
12.3139,0.041
12.3167,0.024
12.3194,0.02
12.3222,0.0245
12.325,0.0157
12.3278,0.0137
12.3306,-0.0085
12.3333,0.0147
12.3361,-0.0026
12.3389,0.0084
12.3417,-0.0057
12.3444,0.0089
12.3472,0.0029
12.35,0.0063
12.3528,-0.0032
12.3556,0.0107
12.3583,0.0026
12.3611,-0.0026
12.3639,-0.0008
12.3667,-0.0111
12.3694,0.0139
12.3722,0.0044
12.375,-0.0048
12.3778,-0.0003
12.3806,-0.001
12.3833,-0.0024
12.3861,-0.0084
12.3889,0.0017
12.3917,0.0009
12.3944,-0.0003
12.3972,-0.0082
12.4,-0.0015
12.4028,-0.0083
12.4056,0.007
12.4083,-0.0176
12.4111,-0.0111
12.4139,0.0153
12.4167,-0.0025
12.4194,0.0073
12.4222,0.0144
12.425,0.0015
12.4278,0.0181
12.4306,0.0021
12.4333,-0.017
12.4361,-0.0224
12.4389,0.0097
12.4417,0.0079
12.4444,0.0077
12.4472,-0.0048
12.45,-0.0116
12.4528,-0.0105
12.4556,0.0107
12.4583,0.014
12.4611,0.0101
12.4639,-0.0033
12.4667,-0.006
12.4694,-0.0087
12.4722,-0.0083
12.475,-0.0092
12.4778,-0.0125
12.4806,0.0079
12.4833,0.0039
12.4861,-0.0093
12.4889,0.0102
12.4917,0.0011
12.4944,-0.0056
12.4972,0.0106
12.5,0.005
12.5028,-0.0127
12.5056,0.0181
12.5083,-0.0126
12.5111,-0.0005
12.5139,0.0157
12.5167,0.014
12.5194,-0.0099
12.5222,-0.0101
12.525,-0.007
12.5278,-0.0228
12.5306,0.0068
12.5333,-0.0011
12.5361,0.0012
12.5389,0.0033
12.5417,0.0076
12.5444,-0.0061
12.5472,-0.007
12.55,-0.0003
12.5528,0.0048
12.5556,-0.0076
12.5583,0.0076
12.5611,0.0049
12.5639,-0.0006
12.5667,0.0103
12.5694,-0.0026
12.5722,-0.0119
12.575,-0.015
12.5778,0.0177
12.5806,-0.01
12.5833,0.0074
12.5861,-0.0167
12.5889,0.0118
12.5917,-0.0083
12.5944,0.0097
12.5972,0.0017
12.6,-0.0023
12.6028,-0.0159
12.6056,0.0061
12.6083,0.001
12.6111,0.0057
12.6139,0.0095
12.6167,0.0127
12.6194,-0.0171
12.6222,0.0004
12.625,0.0042
12.6278,-0.0078
12.6306,0.001
12.6333,-0.005
12.6361,-0.0075
12.6389,-0.0002
12.6417,0.0062
12.6444,-0.0013
12.6472,0.0074
12.65,0.017
12.6528,-0.0185
12.6556,0.0079
12.6583,0.0107
12.6611,0.0011
12.6639,-0.0042
12.6667,0.0134
12.6694,-0.0143
12.6722,0.0052
12.675,-0.01
12.6778,0.0173
12.6806,0.0
12.6833,0.0095
12.6861,0.001
12.6889,0.0129
12.6917,-0.0098
12.6944,0.0019
12.6972,0.0115
12.7,0.022
12.7028,0.0048
12.7056,-0.0203
12.7083,0.0125
12.7111,-0.0017
12.7139,0.0032
12.7167,-0.0002
12.7194,-0.0059
12.7222,0.0083
12.725,0.0083
12.7278,0.014
12.7306,0.0078
12.7333,0.0133
12.7361,0.0327
12.7389,0.017
12.7417,0.0305
12.7444,0.0349
12.7472,0.0451
12.75,0.0442
12.7528,0.0508
12.7556,0.0601
12.7583,0.0732
12.7611,0.0698
12.7639,0.0675
12.7667,0.0728
12.7694,0.0652
12.7722,0.0758
12.775,0.0594
12.7778,0.0656
12.7806,0.0663
12.7833,0.076
12.7861,0.0666
12.7889,0.0862
12.7917,0.0763
12.7944,0.0579
12.7972,0.0778
12.8,0.0996
12.8028,0.0803
12.8056,0.0865
12.8083,0.0842
12.8111,0.0829
12.8139,0.0804
12.8167,0.0409
12.8194,0.0835
12.8222,0.0466
12.825,0.0767
12.8278,0.0675
12.8306,0.0715
12.8333,0.0525
12.8361,0.0526
12.8389,0.0437
12.8417,0.0533
12.8444,0.0592
12.8472,0.04
12.85,0.0319
12.8528,0.035
12.8556,0.0082
12.8583,0.03
12.8611,0.0322
12.8639,0.0256
12.8667,-0.0001
12.8694,0.0042
12.8722,0.0035
12.875,0.0186
12.8778,0.0016
12.8806,-0.0055
12.8833,-0.016
12.8861,0.006
12.8889,-0.0023
12.8917,0.0109
12.8944,0.0091
12.8972,-0.0119
12.9,0.0032
12.9028,0.0114
12.9056,0.0037
12.9083,-0.0098
12.9111,0.0036
12.9139,-0.0147
12.9167,0.0
12.9194,0.0075
12.9222,0.0171
12.925,0.0151
12.9278,-0.0106
12.9306,-0.0087
12.9333,-0.0164
12.9361,0.0144
12.9389,-0.0101
12.9417,-0.0224
12.9444,-0.0369
12.9472,-0.045
12.95,-0.0215
12.9528,-0.032
12.9556,-0.0007
12.9583,-0.003
12.9611,0.1162
12.9639,0.2264
12.9667,0.3385
12.9694,0.4194
12.9722,0.501
12.975,0.5958
12.9778,0.6608
12.9806,0.7078
12.9833,0.7725
12.9861,0.7674
12.9889,0.7884
12.9917,0.7917
12.9944,0.7993
12.9972,0.7764
13.0,0.716
13.0028,0.6663
13.0056,0.5938
13.0083,0.5081
13.0111,0.4288
13.0139,0.3337
13.0167,0.2448
13.0194,0.1083
13.0222,0.017
13.025,-0.0449
13.0278,-0.0357
13.0306,-0.0793
13.0333,-0.0896
13.0361,-0.086
13.0389,-0.107
13.0417,-0.1269
13.0444,-0.1171
13.0472,-0.1256
13.05,-0.1281
13.0528,-0.1016
13.0556,-0.0585
13.0583,-0.0662
13.0611,-0.0318
13.0639,-0.0032
13.0667,0.0105
13.0694,0.0037
13.0722,-0.0099
13.075,-0.0036
13.0778,0.0053
13.0806,0.0248
13.0833,-0.0043
13.0861,0.0038
13.0889,0.0046
13.0917,-0.0077
13.0944,-0.017
13.0972,0.0207
13.1,0.0073
13.1028,-0.0071
13.1056,-0.0106
13.1083,0.0068
13.1111,0.0121
13.1139,0.0025
13.1167,-0.0065
13.1194,-0.001
13.1222,0.0043
13.125,0.0073
13.1278,-0.0106
13.1306,0.0027
13.1333,0.0082
13.1361,0.0142
13.1389,0.0089
13.1417,-0.0085
13.1444,0.0153
13.1472,-0.0007
13.15,0.0171
13.1528,0.0044
13.1556,0.0035
13.1583,-0.0098
13.1611,0.0048
13.1639,-0.0052
13.1667,0.0047
13.1694,-0.0141
13.1722,0.001
13.175,0.0049
13.1778,0.0191
13.1806,0.0131
13.1833,0.0145
13.1861,0.0301
13.1889,0.0432
13.1917,0.0347
13.1944,0.0545
13.1972,0.0681
13.2,0.0652
13.2028,0.0658
13.2056,0.0736
13.2083,0.0803
13.2111,0.08
13.2139,0.0827
13.2167,0.0917
13.2194,0.0897
13.2222,0.0934
13.225,0.0943
13.2278,0.0922
13.2306,0.1151
13.2333,0.1087
13.2361,0.1126
13.2389,0.1276
13.2417,0.1393
13.2444,0.118
13.2472,0.1357
13.25,0.1398
13.2528,0.1265
13.2556,0.1511
13.2583,0.1485
13.2611,0.1592
13.2639,0.1576
13.2667,0.141
13.2694,0.1447
13.2722,0.1514
13.275,0.161
13.2778,0.1322
13.2806,0.1649
13.2833,0.128
13.2861,0.1387
13.2889,0.1464
13.2917,0.1392
13.2944,0.1439
13.2972,0.1502
13.3,0.1368
13.3028,0.1469
13.3056,0.1342
13.3083,0.1463
13.3111,0.1418
13.3139,0.1315
13.3167,0.1294
13.3194,0.1286
13.3222,0.0993
13.325,0.1192
13.3278,0.1138
13.3306,0.1103
13.3333,0.0914
13.3361,0.107
13.3389,0.0902
13.3417,0.0949
13.3444,0.0859
13.3472,0.0769
13.35,0.0691
13.3528,0.0687
13.3556,0.0692
13.3583,0.0605
13.3611,0.0659
13.3639,0.0327
13.3667,0.0361
13.3694,0.0442
13.3722,0.0135
13.375,0.0324
13.3778,0.0037
13.3806,0.0123
13.3833,0.0111
13.3861,0.0059
13.3889,0.0037
13.3917,0.0045
13.3944,0.008
13.3972,0.0056
13.4,-0.0053
13.4028,-0.0105
13.4056,0.0074
13.4083,0.0077
13.4111,0.0094
13.4139,0.0214
13.4167,-0.0211
13.4194,0.0025
13.4222,-0.0048
13.425,-0.0111
13.4278,0.0019
13.4306,-0.0073
13.4333,0.0098
13.4361,0.0002
13.4389,0.0006
13.4417,0.0036
13.4444,0.0082
13.4472,0.0048
13.45,-0.0041
13.4528,0.0084
13.4556,0.0111
13.4583,-0.0012
13.4611,0.0034
13.4639,-0.016
13.4667,0.0139
13.4694,0.0003
13.4722,-0.0079
13.475,0.0071
13.4778,0.0031
13.4806,-0.0151
13.4833,0.0018
13.4861,0.0009
13.4889,0.0163
13.4917,0.0095
13.4944,-0.0154
13.4972,0.0015
13.5,-0.0049
13.5028,0.0152
13.5056,0.0024
13.5083,0.0027
13.5111,-0.0045
13.5139,0.0075
13.5167,-0.0027
13.5194,-0.0054
13.5222,-0.0141
13.525,-0.0011
13.5278,0.0173
13.5306,0.0029
13.5333,0.0102
13.5361,0.0172
13.5389,-0.0016
13.5417,-0.0045
13.5444,0.015
13.5472,0.009
13.55,-0.0018
13.5528,-0.0111
13.5556,0.0041
13.5583,0.0057
13.5611,0.0046
13.5639,0.014
13.5667,0.0041
13.5694,0.0081
13.5722,-0.0054
13.575,0.007
13.5778,-0.002
13.5806,0.0175
13.5833,-0.0099
13.5861,0.0051
13.5889,-0.0113
13.5917,0.0118
13.5944,0.0053
13.5972,0.009
13.6,-0.0169
13.6028,-0.0087
13.6056,0.0013
13.6083,0.0047
13.6111,0.0058
13.6139,-0.0099
13.6167,0.015
13.6194,-0.0059
13.6222,0.0056
13.625,-0.0094
13.6278,0.0066
13.6306,0.0038
13.6333,0.0074
13.6361,0.0089
13.6389,-0.0039
13.6417,-0.0106
13.6444,-0.0076
13.6472,-0.0053
13.65,0.0023
13.6528,0.0168
13.6556,-0.0099
13.6583,-0.0012
13.6611,-0.0209
13.6639,-0.0056
13.6667,0.001
13.6694,-0.018
13.6722,-0.0064
13.675,-0.008
13.6778,-0.0118
13.6806,0.0139
13.6833,-0.0025
13.6861,-0.0077
13.6889,0.0028
13.6917,-0.0078
13.6944,0.0039
13.6972,0.0212
13.7,0.0083
13.7028,-0.0126
13.7056,0.0212
13.7083,0.0086
13.7111,-0.0016
13.7139,-0.0053
13.7167,-0.0086
13.7194,0.0007
13.7222,-0.008
13.725,0.0122
13.7278,-0.008
13.7306,-0.0194
13.7333,0.0106
13.7361,0.0133
13.7389,-0.0031
13.7417,0.0035
13.7444,-0.0032
13.7472,-0.0042
13.75,0.0025
13.7528,0.0053
13.7556,-0.0032
13.7583,0.0275
13.7611,-0.0033
13.7639,0.003
13.7667,-0.0024
13.7694,0.0193
13.7722,-0.0113
13.775,-0.0131
13.7778,0.0088
13.7806,-0.0037
13.7833,-0.008
13.7861,-0.0046
13.7889,0.0035
13.7917,0.0101
13.7944,0.0076
13.7972,-0.011
13.8,0.0152
13.8028,0.0137
13.8056,0.0348
13.8083,0.0197
13.8111,0.0211
13.8139,0.0095
13.8167,0.0235
13.8194,0.0567
13.8222,0.0417
13.825,0.0595
13.8278,0.0595
13.8306,0.0461
13.8333,0.0503
13.8361,0.0705
13.8389,0.0559
13.8417,0.0679
13.8444,0.0806
13.8472,0.074
13.85,0.0527
13.8528,0.0763
13.8556,0.0643
13.8583,0.0761
13.8611,0.0898
13.8639,0.0777
13.8667,0.0846
13.8694,0.0783
13.8722,0.0869
13.875,0.0775
13.8778,0.0852
13.8806,0.0706
13.8833,0.0807
13.8861,0.0827
13.8889,0.0647
13.8917,0.0588
13.8944,0.0832
13.8972,0.0944
13.9,0.0659
13.9028,0.0531
13.9056,0.0544
13.9083,0.0427
13.9111,0.0475
13.9139,0.0553
13.9167,0.0334
13.9194,0.0365
13.9222,0.0359
13.925,0.0337
13.9278,0.0352
13.9306,0.0069
13.9333,0.0134
13.9361,0.0407
13.9389,0.0036
13.9417,0.0162
13.9444,0.005
13.9472,0.0013
13.95,-0.0025
13.9528,0.0197
13.9556,0.0235
13.9583,-0.0074
13.9611,-0.0065
13.9639,0.0003
13.9667,0.0059
13.9694,0.0151
13.9722,0.0057
13.975,-0.0045
13.9778,0.009
13.9806,0.0102
13.9833,0.0043
13.9861,0.0041
13.9889,-0.0023
13.9917,0.0124
13.9944,0.0167
13.9972,-0.0162
14.0,0.0124
14.0028,0.0092
14.0056,-0.0028
14.0083,-0.0209
14.0111,-0.0276
14.0139,-0.028
14.0167,-0.0507
14.0194,-0.0376
14.0222,-0.0412
14.025,-0.0118
14.0278,-0.0275
14.0306,0.0497
14.0333,0.1597
14.0361,0.2605
14.0389,0.3693
14.0417,0.4505
14.0444,0.5437
14.0472,0.6281
14.05,0.6826
14.0528,0.7298
14.0556,0.7723
14.0583,0.7938
14.0611,0.7962
14.0639,0.8145
14.0667,0.7743
14.0694,0.7254
14.0722,0.6936
14.075,0.6262
14.0778,0.5568
14.0806,0.4819
14.0833,0.4054
14.0861,0.2813
14.0889,0.1817
14.0917,0.0809
14.0944,0.0185
14.0972,-0.026
14.1,-0.0528
14.1028,-0.069
14.1056,-0.0854
14.1083,-0.1162
14.1111,-0.1359
14.1139,-0.1159
14.1167,-0.1271
14.1194,-0.1073
14.1222,-0.1065
14.125,-0.0799
14.1278,-0.0724
14.1306,-0.0448
14.1333,-0.0369
14.1361,-0.0041
14.1389,-0.0014
14.1417,0.0144
14.1444,-0.0014
14.1472,-0.0155
14.15,0.0031
14.1528,-0.019
14.1556,-0.0025
14.1583,-0.0045
14.1611,-0.0137
14.1639,0.0074
14.1667,-0.0053
14.1694,0.0117
14.1722,-0.0003
14.175,0.0092
14.1778,0.0124
14.1806,-0.0118
14.1833,0.0004
14.1861,0.002
14.1889,-0.0002
14.1917,0.0189
14.1944,-0.0094
14.1972,-0.0087
14.2,0.0021
14.2028,0.0021
14.2056,0.0051
14.2083,-0.0084
14.2111,-0.0061
14.2139,0.0006
14.2167,-0.0159
14.2194,-0.0023
14.2222,-0.002
14.225,0.0071
14.2278,0.0016
14.2306,0.003
14.2333,0.0165
14.2361,-0.0021
14.2389,0.008
14.2417,-0.0108
14.2444,0.001
14.2472,-0.0001
14.25,0.0119
14.2528,0.0266
14.2556,0.0197
14.2583,0.0376
14.2611,0.0301
14.2639,0.0482
14.2667,0.0496
14.2694,0.0514
14.2722,0.0645
14.275,0.0676
14.2778,0.0892
14.2806,0.0871
14.2833,0.0751
14.2861,0.0788
14.2889,0.1044
14.2917,0.0887
14.2944,0.1056
14.2972,0.1142
14.3,0.1077
14.3028,0.1135
14.3056,0.1333
14.3083,0.131
14.3111,0.1369
14.3139,0.1263
14.3167,0.1274
14.3194,0.1386
14.3222,0.1253
14.325,0.1434
14.3278,0.1367
14.3306,0.1513
14.3333,0.1538
14.3361,0.1448
14.3389,0.1366
14.3417,0.1439
14.3444,0.1394
14.3472,0.144
14.35,0.1572
14.3528,0.1436
14.3556,0.136
14.3583,0.1509
14.3611,0.1454
14.3639,0.1493
14.3667,0.1412
14.3694,0.1491
14.3722,0.1354
14.375,0.1219
14.3778,0.1358
14.3806,0.1464
14.3833,0.135
14.3861,0.1387
14.3889,0.1371
14.3917,0.1316
14.3944,0.1263
14.3972,0.1262
14.4,0.1096
14.4028,0.1141
14.4056,0.1156
14.4083,0.0995
14.4111,0.0829
14.4139,0.0986
14.4167,0.0833
14.4194,0.0966
14.4222,0.0729
14.425,0.058
14.4278,0.0774
14.4306,0.0529
14.4333,0.0786
14.4361,0.0287
14.4389,0.0486
14.4417,0.0465
14.4444,0.0217
14.4472,0.0157
14.45,0.0246
14.4528,0.0037
14.4556,-0.003
14.4583,0.0014
14.4611,0.0072
14.4639,0.002
14.4667,-0.0056
14.4694,-0.0057
14.4722,-0.0176
14.475,0.0018
14.4778,-0.012
14.4806,0.0097
14.4833,0.0177
14.4861,0.005
14.4889,0.0266
14.4917,0.0053
14.4944,0.0136
14.4972,0.0026
14.5,0.0046
14.5028,-0.0098
14.5056,-0.0074
14.5083,-0.0325
14.5111,0.0077
14.5139,0.0087
14.5167,0.025
14.5194,-0.0205
14.5222,0.002
14.525,-0.0
14.5278,0.0027
14.5306,0.0039
14.5333,0.0002
14.5361,-0.0053
14.5389,-0.0126
14.5417,0.0164
14.5444,-0.0027
14.5472,0.0127
14.55,0.002
14.5528,0.0106
14.5556,-0.0031
14.5583,-0.0007
14.5611,0.0168
14.5639,0.0002
14.5667,-0.0006
14.5694,0.0062
14.5722,-0.011
14.575,-0.0002
14.5778,-0.0031
14.5806,0.005
14.5833,0.0032
14.5861,-0.0198
14.5889,0.0084
14.5917,-0.0017
14.5944,-0.0016
14.5972,0.0107
14.6,0.0005
14.6028,-0.0101
14.6056,0.0049
14.6083,-0.0006
14.6111,-0.0172
14.6139,0.0032
14.6167,0.0016
14.6194,-0.0051
14.6222,0.0001
14.625,0.002
14.6278,-0.0011
14.6306,0.0194
14.6333,-0.0117
14.6361,0.006
14.6389,0.0098
14.6417,0.002
14.6444,-0.0011
14.6472,0.0107
14.65,0.0086
14.6528,0.0086
14.6556,0.0051
14.6583,0.0018
14.6611,0.0014
14.6639,-0.0051
14.6667,0.001
14.6694,-0.0048
14.6722,-0.0037
14.675,-0.0096
14.6778,0.0076
14.6806,-0.0187
14.6833,0.0178
14.6861,0.0089
14.6889,-0.0093
14.6917,-0.0066
14.6944,0.0041
14.6972,-0.003
14.7,0.0069
14.7028,-0.0062
14.7056,0.0001
14.7083,0.0065
14.7111,-0.0006
14.7139,0.0142
14.7167,-0.0104
14.7194,0.0067
14.7222,-0.0083
14.725,-0.0079
14.7278,0.0103
14.7306,-0.0149
14.7333,0.0085
14.7361,-0.0036
14.7389,0.0209
14.7417,0.0141
14.7444,0.0059
14.7472,-0.0052
14.75,-0.0037
14.7528,0.0015
14.7556,0.008
14.7583,0.0059
14.7611,0.0256
14.7639,-0.0048
14.7667,0.0084
14.7694,-0.0124
14.7722,0.0152
14.775,0.0169
14.7778,0.0054
14.7806,0.0006
14.7833,-0.0106
14.7861,-0.0159
14.7889,-0.0029
14.7917,0.0015
14.7944,0.0186
14.7972,-0.0047
14.8,0.0014
14.8028,0.0089
14.8056,-0.0061
14.8083,0.009
14.8111,-0.005
14.8139,-0.0121
14.8167,0.0148
14.8194,-0.0037
14.8222,0.006
14.825,0.0037
14.8278,0.0106
14.8306,0.0006
14.8333,-0.0035
14.8361,0.0151
14.8389,-0.0068
14.8417,0.0033
14.8444,-0.0059
14.8472,-0.0153
14.85,-0.0004
14.8528,0.0125
14.8556,0.0043
14.8583,-0.0281
14.8611,-0.0221
14.8639,-0.003
14.8667,0.0014
14.8694,-0.0043
14.8722,-0.0111
14.875,0.0041
14.8778,0.019
14.8806,0.0221
14.8833,0.044
14.8861,0.0506
14.8889,0.0466
14.8917,0.0262
14.8944,0.0277
14.8972,0.0393
14.9,0.0524
14.9028,0.0535
14.9056,0.0385
14.9083,0.0604
14.9111,0.0554
14.9139,0.0655
14.9167,0.0683
14.9194,0.0408
14.9222,0.0676
14.925,0.0851
14.9278,0.0681
14.9306,0.0555
14.9333,0.0627
14.9361,0.0721
14.9389,0.0924
14.9417,0.0807
14.9444,0.0917
14.9472,0.0763
14.95,0.0741
14.9528,0.0737
14.9556,0.0748
14.9583,0.0821
14.9611,0.0718
14.9639,0.0597
14.9667,0.0783
14.9694,0.0654
14.9722,0.0756
14.975,0.082
14.9778,0.0868
14.9806,0.0679
14.9833,0.0743
14.9861,0.0508
14.9889,0.0435
14.9917,0.0543
14.9944,0.0424
14.9972,0.0392
15.0,0.0445
15.0028,0.0278
15.0056,0.0245
15.0083,0.0393
15.0111,0.0195
15.0139,0.001
15.0167,0.0119
15.0194,-0.0037
15.0222,-0.004
15.025,-0.0047
15.0278,0.0073
15.0306,0.0048
15.0333,0.022
15.0361,-0.0007
15.0389,-0.0389
15.0417,0.0058
15.0444,0.0117
15.0472,0.0067
15.05,0.0065
15.0528,0.0004
15.0556,-0.009
15.0583,-0.0091
15.0611,0.0006
15.0639,0.0081
15.0667,-0.0042
15.0694,0.0023
15.0722,-0.0142
15.075,0.0013
15.0778,-0.0074
15.0806,0.0111
15.0833,0.004
15.0861,0.009
15.0889,-0.0029
15.0917,-0.0183
15.0944,-0.0197
15.0972,-0.0284
15.1,-0.0395
15.1028,-0.0166
15.1056,-0.0357
15.1083,-0.0248
15.1111,0.0331
15.1139,0.1216
15.1167,0.2374
15.1194,0.3344
15.1222,0.4245
15.125,0.4914
15.1278,0.5923
15.1306,0.6446
15.1333,0.7081
15.1361,0.7443
15.1389,0.7764
15.1417,0.8091
15.1444,0.8205
15.1472,0.7793
15.15,0.7591
15.1528,0.7226
15.1556,0.6549
15.1583,0.6057
15.1611,0.5333
15.1639,0.4662
15.1667,0.3646
15.1694,0.2777
15.1722,0.1811
15.175,0.0515
15.1778,-0.0249
15.1806,-0.0304
15.1833,-0.0404
15.1861,-0.0628
15.1889,-0.0945
15.1917,-0.1089
15.1944,-0.1267
15.1972,-0.1281
15.2,-0.1194
15.2028,-0.1162
15.2056,-0.0978
15.2083,-0.0939
15.2111,-0.0637
15.2139,-0.0592
15.2167,-0.0439
15.2194,0.0111
15.2222,0.0004
15.225,-0.0159
15.2278,0.0021
15.2306,0.0107
15.2333,-0.0119
15.2361,-0.0108
15.2389,-0.0061
15.2417,0.0127
15.2444,0.0144
15.2472,-0.0053
15.25,0.0116
15.2528,0.004
15.2556,-0.0049
15.2583,0.0182
15.2611,-0.0045
15.2639,0.0043
15.2667,-0.0099
15.2694,-0.0079
15.2722,-0.0105
15.275,-0.0243
15.2778,-0.0073
15.2806,0.0122
15.2833,-0.0103
15.2861,0.0124
15.2889,0.0112
15.2917,0.0033
15.2944,0.0101
15.2972,-0.0052
15.3,0.0088
15.3028,-0.0092
15.3056,0.0061
15.3083,-0.0004
15.3111,0.0122
15.3139,0.0289
15.3167,-0.0057
15.3194,0.0046
15.3222,0.0102
15.325,-0.0
15.3278,0.0058
15.3306,0.0015
15.3333,0.0028
15.3361,0.0207
15.3389,0.0185
15.3417,0.007
15.3444,0.0224
15.3472,0.0411
15.35,0.0375
15.3528,0.0553
15.3556,0.0613
15.3583,0.0556
15.3611,0.0612
15.3639,0.0719
15.3667,0.0781
15.3694,0.0844
15.3722,0.0731
15.375,0.1002
15.3778,0.1033
15.3806,0.0894
15.3833,0.1124
15.3861,0.0986
15.3889,0.1037
15.3917,0.1249
15.3944,0.1021
15.3972,0.1308
15.4,0.1507
15.4028,0.1245
15.4056,0.1317
15.4083,0.1408
15.4111,0.139
15.4139,0.1302
15.4167,0.1505
15.4194,0.16
15.4222,0.1497
15.425,0.1429
15.4278,0.1488
15.4306,0.1402
15.4333,0.1524
15.4361,0.1643
15.4389,0.1514
15.4417,0.1611
15.4444,0.1325
15.4472,0.1439
15.45,0.1458
15.4528,0.1296
15.4556,0.1485
15.4583,0.1455
15.4611,0.1597
15.4639,0.1506
15.4667,0.1383
15.4694,0.1301
15.4722,0.1444
15.475,0.1407
15.4778,0.1092
15.4806,0.1362
15.4833,0.1387
15.4861,0.1088
15.4889,0.1101
15.4917,0.1114
15.4944,0.1073
15.4972,0.1016
15.5,0.1022
15.5028,0.0914
15.5056,0.0944
15.5083,0.0953
15.5111,0.092
15.5139,0.0718
15.5167,0.0731
15.5194,0.0492
15.5222,0.0458
15.525,0.06
15.5278,0.0553
15.5306,0.0517
15.5333,0.0433
15.5361,0.0352
15.5389,0.0207
15.5417,0.0345
15.5444,0.0179
15.5472,0.0195
15.55,0.0001
15.5528,-0.0015
15.5556,-0.0012
15.5583,-0.0231
15.5611,0.0037
15.5639,0.011
15.5667,0.0002
15.5694,-0.0099
15.5722,0.0127
15.575,-0.0178
15.5778,-0.0188
15.5806,0.0141
15.5833,0.0001
15.5861,0.0002
15.5889,-0.0069
15.5917,0.0194
15.5944,-0.0041
15.5972,-0.012
15.6,0.0133
15.6028,-0.0051
15.6056,-0.0002
15.6083,-0.0139
15.6111,-0.007
15.6139,0.0159
15.6167,-0.0002
15.6194,0.0064
15.6222,-0.0062
15.625,-0.0066
15.6278,-0.0007
15.6306,0.0043
15.6333,-0.0034
15.6361,0.008
15.6389,-0.0021
15.6417,-0.0178
15.6444,0.0043
15.6472,-0.0061
15.65,-0.0051
15.6528,-0.0158
15.6556,0.0039
15.6583,-0.0073
15.6611,-0.0008
15.6639,0.014
15.6667,0.0048
15.6694,-0.0108
15.6722,-0.0118
15.675,-0.013
15.6778,0.0065
15.6806,-0.011
15.6833,0.0037
15.6861,-0.0229
15.6889,-0.0017
15.6917,-0.0105
15.6944,-0.0192
15.6972,0.0042
15.7,0.0031
15.7028,0.0032
15.7056,0.0107
15.7083,-0.0119
15.7111,0.0016
15.7139,-0.001
15.7167,-0.0019
15.7194,0.0076
15.7222,0.01
15.725,0.0018
15.7278,0.0115
15.7306,0.0105
15.7333,0.0275
15.7361,0.0138
15.7389,-0.0063
15.7417,-0.0101
15.7444,-0.0016
15.7472,0.003
15.75,-0.0038
15.7528,0.0152
15.7556,-0.0081
15.7583,0.0054
15.7611,0.0221
15.7639,0.0085
15.7667,-0.0156
15.7694,-0.0035
15.7722,-0.0075
15.775,-0.0055
15.7778,0.0053
15.7806,0.0134
15.7833,0.0216
15.7861,-0.0208
15.7889,-0.0091
15.7917,-0.0041
15.7944,-0.0035
15.7972,-0.0054
15.8,0.003
15.8028,-0.0052
15.8056,0.0018
15.8083,0.0051
15.8111,-0.0082
15.8139,-0.0004
15.8167,0.0215
15.8194,0.0028
15.8222,0.017
15.825,-0.002
15.8278,-0.0099
15.8306,-0.0098
15.8333,0.0009
15.8361,0.0048
15.8389,0.0069
15.8417,-0.003
15.8444,-0.0017
15.8472,-0.016
15.85,-0.0034
15.8528,-0.0014
15.8556,0.0068
15.8583,-0.0082
15.8611,0.0128
15.8639,-0.011
15.8667,-0.0105
15.8694,-0.0095
15.8722,0.0052
15.875,-0.0025
15.8778,-0.001
15.8806,-0.0012
15.8833,-0.0109
15.8861,-0.0019
15.8889,-0.0029
15.8917,-0.0053
15.8944,0.0004
15.8972,-0.01
15.9,0.01
15.9028,-0.0066
15.9056,-0.0172
15.9083,0.0028
15.9111,-0.0079
15.9139,-0.0071
15.9167,0.0191
15.9194,-0.0162
15.9222,0.0004
15.925,-0.0003
15.9278,0.0005
15.9306,0.003
15.9333,0.0114
15.9361,0.0093
15.9389,-0.0021
15.9417,0.0021
15.9444,-0.0121
15.9472,0.0021
15.95,-0.0079
15.9528,-0.0182
15.9556,-0.0038
15.9583,0.0107
15.9611,0.006
15.9639,-0.015
15.9667,0.0105
15.9694,-0.0007
15.9722,0.0188
15.975,-0.0085
15.9778,-0.0024
15.9806,0.0169
15.9833,0.0021
15.9861,0.0112
15.9889,0.0058
15.9917,0.0263
15.9944,0.0335
15.9972,0.0118
16.0,0.0428
16.0028,0.021
16.0056,0.0452
16.0083,0.0467
16.0111,0.0609
16.0139,0.0578
16.0167,0.06
16.0194,0.0463
16.0222,0.0676
16.025,0.068
16.0278,0.0651
16.0306,0.0604
16.0333,0.0561
16.0361,0.0743
16.0389,0.0709
16.0417,0.0737
16.0444,0.0787
16.0472,0.0778
16.05,0.0729
16.0528,0.081
16.0556,0.0769
16.0583,0.0591
16.0611,0.09
16.0639,0.0827
16.0667,0.0685
16.0694,0.0883
16.0722,0.0783
16.075,0.0843
16.0778,0.0723
16.0806,0.0595
16.0833,0.0609
16.0861,0.072
16.0889,0.0557
16.0917,0.0495
16.0944,0.0556
16.0972,0.0572
16.1,0.045
16.1028,0.0527
16.1056,0.0563
16.1083,0.0451
16.1111,0.045
16.1139,0.0433
16.1167,0.0457
16.1194,0.0303
16.1222,0.0289
16.125,0.0342
16.1278,0.0103
16.1306,0.0122
16.1333,0.0087
16.1361,0.026
16.1389,0.0073
16.1417,0.0087
16.1444,0.0099
16.1472,-0.0118
16.15,-0.0001
16.1528,0.0121
16.1556,-0.0073
16.1583,0.0102
16.1611,-0.0106
16.1639,0.0031
16.1667,-0.0187
16.1694,0.0017
16.1722,0.0069
16.175,0.0035
16.1778,0.0083
16.1806,-0.0089
16.1833,-0.0047
16.1861,0.0065
16.1889,0.006
16.1917,-0.0078
16.1944,-0.0032
16.1972,0.0064
16.2,-0.0058
16.2028,0.0204
16.2056,0.0122
16.2083,0.0012
16.2111,-0.033
16.2139,-0.0172
16.2167,-0.0293
16.2194,-0.0371
16.2222,-0.0299
16.225,-0.0268
16.2278,-0.0307
16.2306,0.0148
16.2333,0.0919
16.2361,0.2133
16.2389,0.2843
16.2417,0.4005
16.2444,0.4714
16.2472,0.5481
16.25,0.608
16.2528,0.6711
16.2556,0.7184
16.2583,0.7592
16.2611,0.7961
16.2639,0.7796
16.2667,0.7855
16.2694,0.7956
16.2722,0.7564
16.275,0.7228
16.2778,0.6721
16.2806,0.6064
16.2833,0.5455
16.2861,0.4704
16.2889,0.4025
16.2917,0.293
16.2944,0.2024
16.2972,0.1128
16.3,0.0099
16.3028,-0.0217
16.3056,-0.0437
16.3083,-0.0475
16.3111,-0.0876
16.3139,-0.1001
16.3167,-0.1152
16.3194,-0.1194
16.3222,-0.1189
16.325,-0.1218
16.3278,-0.1122
16.3306,-0.0988
16.3333,-0.0958
16.3361,-0.0644
16.3389,-0.0624
16.3417,-0.0412
16.3444,-0.0133
16.3472,-0.0099
16.35,0.0106
16.3528,0.0104
16.3556,-0.0022
16.3583,0.005
16.3611,0.0065
16.3639,-0.0005
16.3667,0.0039
16.3694,0.0201
16.3722,0.0045
16.375,-0.0106
16.3778,0.005
16.3806,-0.0037
16.3833,0.0037
16.3861,-0.0172
16.3889,0.0065
16.3917,-0.0011
16.3944,-0.0057
16.3972,0.0093
16.4,0.0071
16.4028,-0.0204
16.4056,0.001
16.4083,0.0023
16.4111,-0.0135
16.4139,0.0164
16.4167,0.0189
16.4194,0.004
16.4222,-0.0033
16.425,-0.0156
16.4278,-0.0103
16.4306,-0.0037
16.4333,-0.0197
16.4361,0.0095
16.4389,0.0083
16.4417,0.0114
16.4444,-0.0067
16.4472,0.007
16.45,0.0183
16.4528,0.0162
16.4556,0.0055
16.4583,0.0195
16.4611,-0.008
16.4639,0.0084
16.4667,-0.0026
16.4694,0.0052
16.4722,0.0453
16.475,0.0266
16.4778,0.0363
16.4806,0.0411
16.4833,0.0446
16.4861,0.0474
16.4889,0.04
16.4917,0.0662
16.4944,0.0613
16.4972,0.0759
16.5,0.0704
16.5028,0.0839
16.5056,0.0974
16.5083,0.0752
16.5111,0.1012
16.5139,0.1089
16.5167,0.0951
16.5194,0.1006
16.5222,0.1177
16.525,0.1205
16.5278,0.1147
16.5306,0.1156
16.5333,0.0986
16.5361,0.1453
16.5389,0.1496
16.5417,0.1352
16.5444,0.1341
16.5472,0.1234
16.55,0.1268
16.5528,0.1454
16.5556,0.1453
16.5583,0.1563
16.5611,0.1464
16.5639,0.1685
16.5667,0.1607
16.5694,0.1622
16.5722,0.1472
16.575,0.1316
16.5778,0.1559
16.5806,0.1674
16.5833,0.1529
16.5861,0.1489
16.5889,0.1442
16.5917,0.1504
16.5944,0.139
16.5972,0.1652
16.6,0.1402
16.6028,0.1421
16.6056,0.1372
16.6083,0.141
16.6111,0.1199
16.6139,0.1464
16.6167,0.1265
16.6194,0.1288
16.6222,0.1197
16.625,0.1208
16.6278,0.104
16.6306,0.1326
16.6333,0.1077
16.6361,0.1051
16.6389,0.0976
16.6417,0.1051
16.6444,0.0929
16.6472,0.082
16.65,0.0967
16.6528,0.0979
16.6556,0.0723
16.6583,0.0688
16.6611,0.0548
16.6639,0.0744
16.6667,0.0668
16.6694,0.0479
16.6722,0.0476
16.675,0.0354
16.6778,0.0564
16.6806,0.0385
16.6833,0.011
16.6861,0.0354
16.6889,-0.0024
16.6917,0.0121
16.6944,0.0044
16.6972,0.0112
16.7,-0.0042
16.7028,0.0097
16.7056,0.0056
16.7083,-0.0004
16.7111,-0.01
16.7139,-0.0015
16.7167,0.0037
16.7194,-0.001
16.7222,-0.0094
16.725,-0.014
16.7278,0.0017
16.7306,-0.0091
16.7333,-0.001
16.7361,0.0107
16.7389,0.0039
16.7417,-0.0076
16.7444,0.0009
16.7472,-0.0048
16.75,-0.0053
16.7528,-0.004
16.7556,-0.0019
16.7583,-0.006
16.7611,0.0135
16.7639,0.0045
16.7667,0.006
16.7694,0.0069
16.7722,-0.0215
16.775,-0.0127
16.7778,-0.0027
16.7806,0.003
16.7833,-0.0066
16.7861,-0.0118
16.7889,0.0067
16.7917,0.0054
16.7944,0.0027
16.7972,-0.0034
16.8,-0.002
16.8028,0.0064
16.8056,0.0004
16.8083,-0.0045
16.8111,-0.0134
16.8139,-0.0013
16.8167,0.001
16.8194,0.0012
16.8222,-0.0052
16.825,-0.009
16.8278,-0.0012
16.8306,-0.011
16.8333,0.0009
16.8361,0.0057
16.8389,-0.0086
16.8417,0.0083
16.8444,0.0076
16.8472,0.0077
16.85,0.0119
16.8528,-0.0056
16.8556,-0.0
16.8583,-0.0069
16.8611,-0.0044
16.8639,-0.0039
16.8667,0.0087
16.8694,-0.0006
16.8722,-0.0125
16.875,-0.0126
16.8778,-0.0148
16.8806,-0.0054
16.8833,0.008
16.8861,-0.0028
16.8889,-0.011
16.8917,0.0061
16.8944,-0.0004
16.8972,-0.0056
16.9,0.0152
16.9028,0.0093
16.9056,0.005
16.9083,-0.0078
16.9111,-0.0007
16.9139,0.0125
16.9167,-0.0015
16.9194,0.0012
16.9222,-0.0029
16.925,-0.0051
16.9278,-0.0062
16.9306,-0.0103
16.9333,0.024
16.9361,-0.0152
16.9389,-0.0032
16.9417,-0.0053
16.9444,-0.0052
16.9472,-0.0219
16.95,-0.0047
16.9528,-0.0004
16.9556,-0.0144
16.9583,0.0042
16.9611,-0.0136
16.9639,0.0216
16.9667,-0.0067
16.9694,0.0013
16.9722,-0.0033
16.975,0.0182
16.9778,-0.009
16.9806,0.0241
16.9833,-0.0088
16.9861,-0.0033
16.9889,-0.0147
16.9917,-0.0047
16.9944,-0.0033
16.9972,0.0042
17.0,0.007
17.0028,-0.0043
17.0056,0.0062
17.0083,-0.006
17.0111,0.0068
17.0139,-0.0028
17.0167,-0.0173
17.0194,0.0047
17.0222,0.0182
17.025,0.0192
17.0278,-0.0028
17.0306,-0.0101
17.0333,0.0029
17.0361,-0.0068
17.0389,0.0048
17.0417,0.0267
17.0444,0.0119
17.0472,0.0037
17.05,0.0059
17.0528,-0.0211
17.0556,-0.0056
17.0583,0.013
17.0611,0.0001
17.0639,0.0043
17.0667,0.0023
17.0694,0.0031
17.0722,-0.0011
17.075,-0.0004
17.0778,0.0088
17.0806,0.0206
17.0833,0.0138
17.0861,0.004
17.0889,-0.0054
17.0917,-0.0103
17.0944,0.0063
17.0972,0.0035
17.1,0.0109
17.1028,-0.0065
17.1056,0.0019
17.1083,-0.0113
17.1111,-0.0076
17.1139,-0.0046
17.1167,-0.0198
17.1194,-0.0003
17.1222,-0.0113
17.125,-0.0026
17.1278,-0.0176
17.1306,-0.002
17.1333,0.0126
17.1361,-0.0036
17.1389,0.0147
17.1417,0.0156
17.1444,0.0102
17.1472,0.0305
17.15,0.026
17.1528,0.0178
17.1556,0.0263
17.1583,0.0272
17.1611,0.055
17.1639,0.0531
17.1667,0.0643
17.1694,0.0463
17.1722,0.0598
17.175,0.086
17.1778,0.0572
17.1806,0.0533
17.1833,0.0561
17.1861,0.0808
17.1889,0.0733
17.1917,0.0714
17.1944,0.0814
17.1972,0.06
17.2,0.0906
17.2028,0.0745
17.2056,0.0712
17.2083,0.0861
17.2111,0.0965
17.2139,0.0622
17.2167,0.072
17.2194,0.0944
17.2222,0.0671
17.225,0.0797
17.2278,0.0755
17.2306,0.0951
17.2333,0.0834
17.2361,0.0594
17.2389,0.0675
17.2417,0.0825
17.2444,0.0549
17.2472,0.0516
17.25,0.0476
17.2528,0.0485
17.2556,0.0702
17.2583,0.0389
17.2611,0.0552
17.2639,0.0554
17.2667,0.0399
17.2694,0.0322
17.2722,0.0193
17.275,0.025
17.2778,0.0094
17.2806,-0.0108
17.2833,0.0199
17.2861,-0.0053
17.2889,-0.0094
17.2917,0.0009
17.2944,0.0123
17.2972,-0.0032
17.3,0.019
17.3028,-0.0017
17.3056,-0.0044
17.3083,-0.0042
17.3111,-0.0096
17.3139,-0.0035
17.3167,-0.0002
17.3194,0.01
17.3222,-0.0035
17.325,-0.0013
17.3278,0.0122
17.3306,-0.0033
17.3333,0.0026
17.3361,-0.0156
17.3389,-0.005
17.3417,0.0112
17.3444,-0.0061
17.3472,-0.0028
17.35,0.0146
17.3528,0.0175
17.3556,0.0073
17.3583,-0.0065
17.3611,-0.0009
17.3639,-0.0136
17.3667,-0.0308
17.3694,-0.0424
17.3722,-0.0454
17.375,-0.0371
17.3778,-0.0093
17.3806,-0.0006
17.3833,0.0876
17.3861,0.1981
17.3889,0.2737
17.3917,0.3749
17.3944,0.4637
17.3972,0.5435
17.4,0.6036
17.4028,0.6732
17.4056,0.7166
17.4083,0.7623
17.4111,0.7755
17.4139,0.8007
17.4167,0.8105
17.4194,0.7772
17.4222,0.7572
17.425,0.7308
17.4278,0.6597
17.4306,0.6006
17.4333,0.523
17.4361,0.4468
17.4389,0.3286
17.4417,0.2579
17.4444,0.1505
17.4472,0.0679
17.45,-0.0111
17.4528,-0.0345
17.4556,-0.0507
17.4583,-0.0781
17.4611,-0.1079
17.4639,-0.0889
17.4667,-0.117
17.4694,-0.1365
17.4722,-0.1246
17.475,-0.1044
17.4778,-0.1102
17.4806,-0.0931
17.4833,-0.0606
17.4861,-0.0223
17.4889,-0.036
17.4917,-0.0028
17.4944,0.0159
17.4972,0.0097
17.5,-0.0018
17.5028,-0.0102
17.5056,0.0039
17.5083,0.0192
17.5111,0.0118
17.5139,-0.0023
17.5167,-0.0031
17.5194,-0.0012
17.5222,-0.0036
17.525,-0.0241
17.5278,0.0051
17.5306,-0.0068
17.5333,-0.0049
17.5361,-0.0077
17.5389,0.0111
17.5417,0.0294
17.5444,0.0138
17.5472,0.0017
17.55,0.0075
17.5528,-0.0019
17.5556,-0.0011
17.5583,-0.0004
17.5611,0.0089
17.5639,-0.0022
17.5667,-0.01
17.5694,0.011
17.5722,-0.0014
17.575,-0.0202
17.5778,0.0077
17.5806,-0.0012
17.5833,0.0025
17.5861,-0.007
17.5889,-0.0056
17.5917,0.0115
17.5944,0.0085
17.5972,0.0056
17.6,0.0014
17.6028,-0.0054
17.6056,-0.0198
17.6083,-0.0061
17.6111,0.0118
17.6139,0.0118
17.6167,0.0188
17.6194,0.0153
17.6222,0.0107
17.625,0.0489
17.6278,0.0601
17.6306,0.064
17.6333,0.0537
17.6361,0.0632
17.6389,0.0683
17.6417,0.0769
17.6444,0.0681
17.6472,0.0675
17.65,0.07
17.6528,0.1013
17.6556,0.1031
17.6583,0.0935
17.6611,0.0944
17.6639,0.0929
17.6667,0.1113
17.6694,0.0993
17.6722,0.0984
17.675,0.1215
17.6778,0.1257
17.6806,0.1314
17.6833,0.1371
17.6861,0.1188
17.6889,0.1343
17.6917,0.1305
17.6944,0.1504
17.6972,0.1344
17.7,0.143
17.7028,0.1559
17.7056,0.1368
17.7083,0.1437
17.7111,0.1394
17.7139,0.1534
17.7167,0.161
17.7194,0.1363
17.7222,0.1581
17.725,0.1498
17.7278,0.1503
17.7306,0.1654
17.7333,0.1401
17.7361,0.1448
17.7389,0.1286
17.7417,0.1408
17.7444,0.1527
17.7472,0.1257
17.75,0.1417
17.7528,0.1327
17.7556,0.1427
17.7583,0.1323
17.7611,0.1413
17.7639,0.1306
17.7667,0.118
17.7694,0.1205
17.7722,0.0977
17.775,0.1059
17.7778,0.0898
17.7806,0.0788
17.7833,0.0988
17.7861,0.0763
17.7889,0.0942
17.7917,0.0831
17.7944,0.0631
17.7972,0.0662
17.8,0.0734
17.8028,0.0536
17.8056,0.0639
17.8083,0.0577
17.8111,0.0435
17.8139,0.0426
17.8167,0.0302
17.8194,0.0192
17.8222,0.0208
17.825,0.0302
17.8278,0.0053
17.8306,0.0157
17.8333,0.0049
17.8361,0.0067
17.8389,-0.0103
17.8417,0.0098
17.8444,-0.0031
17.8472,0.0051
17.85,0.0067
17.8528,0.0027
17.8556,0.006
17.8583,0.0072
17.8611,-0.0241
17.8639,0.0006
17.8667,0.0059
17.8694,-0.0135
17.8722,-0.0084
17.875,0.0047
17.8778,0.0028
17.8806,-0.0131
17.8833,0.0274
17.8861,0.0102
17.8889,-0.001
17.8917,-0.0025
17.8944,0.0043
17.8972,0.0022
17.9,-0.0031
17.9028,-0.0029
17.9056,0.0115
17.9083,0.0182
17.9111,0.0005
17.9139,0.006
17.9167,-0.004
17.9194,-0.0048
17.9222,-0.0167
17.925,0.0129
17.9278,-0.0189
17.9306,0.0191
17.9333,-0.022
17.9361,-0.0
17.9389,0.0072
17.9417,-0.0071
17.9444,0.0056
17.9472,-0.0046
17.95,-0.0089
17.9528,0.0001
17.9556,0.0055
17.9583,-0.0009
17.9611,0.0117
17.9639,-0.0097
17.9667,-0.0108
17.9694,0.0033
17.9722,0.0008
17.975,-0.0013
17.9778,-0.0056
17.9806,-0.0129
17.9833,-0.0072
17.9861,-0.011
17.9889,-0.001
17.9917,-0.0034
17.9944,-0.0019
17.9972,-0.0003
18.0,0.011
18.0028,-0.0106
18.0056,-0.0031
18.0083,0.0079
18.0111,-0.0033
18.0139,-0.0103
18.0167,0.0018
18.0194,0.0131
18.0222,0.0199
18.025,0.0041
18.0278,-0.004
18.0306,-0.0013
18.0333,0.0015
18.0361,0.0139
18.0389,-0.0128
18.0417,0.0123
18.0444,-0.0023
18.0472,-0.0057
18.05,-0.0067
18.0528,-0.0043
18.0556,0.0033
18.0583,0.0177
18.0611,-0.0212
18.0639,-0.0038
18.0667,0.0059
18.0694,0.0066
18.0722,0.0073
18.075,0.0033
18.0778,-0.001
18.0806,-0.0039
18.0833,-0.0148
18.0861,-0.0074
18.0889,0.017
18.0917,-0.0117
18.0944,-0.0115
18.0972,0.0025
18.1,-0.0065
18.1028,0.0039
18.1056,-0.0009
18.1083,0.0088
18.1111,-0.0084
18.1139,0.0133
18.1167,0.0248
18.1194,0.0167
18.1222,-0.0046
18.125,0.005
18.1278,-0.0033
18.1306,0.0146
18.1333,-0.0034
18.1361,0.0106
18.1389,-0.0064
18.1417,0.0093
18.1444,0.015
18.1472,0.0188
18.15,-0.0013
18.1528,0.0065
18.1556,0.0204
18.1583,-0.022
18.1611,0.0156
18.1639,0.0016
18.1667,0.0043
18.1694,-0.0284
18.1722,0.0143
18.175,0.0061
18.1778,-0.0085
18.1806,0.0023
18.1833,0.014
18.1861,-0.0097
18.1889,0.0046
18.1917,0.0099
18.1944,0.0023
18.1972,-0.0032
18.2,0.0036
18.2028,0.0109
18.2056,-0.02
18.2083,0.0009
18.2111,0.0075
18.2139,0.0068
18.2167,0.0046
18.2194,-0.0067
18.2222,-0.0085
18.225,0.0033
18.2278,-0.003
18.2306,0.0221
18.2333,0.0086
18.2361,0.0034
18.2389,0.0052
18.2417,-0.0017
18.2444,-0.005
18.2472,-0.0007
18.25,0.01
18.2528,-0.0026
18.2556,0.0037
18.2583,-0.0129
18.2611,0.0012
18.2639,0.0019
18.2667,0.0054
18.2694,-0.0015
18.2722,-0.0043
18.275,0.0152
18.2778,0.0129
18.2806,0.0264
18.2833,0.0204
18.2861,0.0223
18.2889,0.0213
18.2917,0.0462
18.2944,0.046
18.2972,0.0481
18.3,0.0669
18.3028,0.0362
18.3056,0.0727
18.3083,0.0524
18.3111,0.0544
18.3139,0.0512
18.3167,0.0548
18.3194,0.0605
18.3222,0.0659
18.325,0.0825
18.3278,0.0802
18.3306,0.0982
18.3333,0.072
18.3361,0.0518
18.3389,0.0773
18.3417,0.0738
18.3444,0.095
18.3472,0.0842
18.35,0.1079
18.3528,0.0879
18.3556,0.0678
18.3583,0.0855
18.3611,0.0817
18.3639,0.094
18.3667,0.0616
18.3694,0.0733
18.3722,0.078
18.375,0.0816
18.3778,0.0661
18.3806,0.0606
18.3833,0.0669
18.3861,0.052
18.3889,0.0533
18.3917,0.054
18.3944,0.0587
18.3972,0.0658
18.4,0.0381
18.4028,0.0537
18.4056,0.0386
18.4083,0.0383
18.4111,0.0334
18.4139,0.0189
18.4167,0.0462
18.4194,0.021
18.4222,0.0064
18.425,0.0021
18.4278,0.0244
18.4306,-0.0014
18.4333,0.0008
18.4361,0.0217
18.4389,0.0037
18.4417,0.0074
18.4444,0.0111
18.4472,-0.0073
18.45,0.0031
18.4528,-0.0026
18.4556,-0.0294
18.4583,-0.0039
18.4611,-0.0092
18.4639,0.0008
18.4667,0.0111
18.4694,0.0054
18.4722,0.0017
18.475,-0.0132
18.4778,0.0103
18.4806,0.0056
18.4833,0.0103
18.4861,-0.0097
18.4889,-0.0088
18.4917,0.0036
18.4944,-0.0061
18.4972,-0.0008
18.5,0.0253
18.5028,-0.0123
18.5056,-0.0186
18.5083,-0.0349
18.5111,-0.0204
18.5139,-0.0397
18.5167,-0.0494
18.5194,-0.0465
18.5222,-0.0316
18.525,-0.0247
18.5278,0.0087
18.5306,0.0746
18.5333,0.1996
18.5361,0.265
18.5389,0.3782
18.5417,0.4377
18.5444,0.5294
18.5472,0.6092
18.55,0.6454
18.5528,0.7144
18.5556,0.7355
18.5583,0.784
18.5611,0.8055
18.5639,0.8017
18.5667,0.7881
18.5694,0.7475
18.5722,0.7395
18.575,0.701
18.5778,0.6653
18.5806,0.5916
18.5833,0.5052
18.5861,0.4532
18.5889,0.3683
18.5917,0.283
18.5944,0.181
18.5972,0.0814
18.6,0.002
18.6028,-0.047
18.6056,-0.0434
18.6083,-0.0569
18.6111,-0.0951
18.6139,-0.0929
18.6167,-0.119
18.6194,-0.1192
18.6222,-0.1213
18.625,-0.1259
18.6278,-0.1285
18.6306,-0.1055
18.6333,-0.1058
18.6361,-0.0794
18.6389,-0.0574
18.6417,-0.0515
18.6444,-0.004
18.6472,0.0114
18.65,0.0006
18.6528,-0.0079
18.6556,-0.0092
18.6583,-0.0068
18.6611,-0.0075
18.6639,-0.0087
18.6667,0.0125
18.6694,0.0241
18.6722,-0.0008
18.675,0.0123
18.6778,0.0148
18.6806,-0.002
18.6833,-0.0148
18.6861,-0.002
18.6889,0.0105
18.6917,0.0005
18.6944,0.0136
18.6972,0.0103
18.7,0.0049
18.7028,0.0031
18.7056,-0.0034
18.7083,-0.0038
18.7111,-0.0043
18.7139,0.0147
18.7167,0.005
18.7194,-0.0062
18.7222,-0.002
18.725,-0.017
18.7278,-0.0039
18.7306,-0.0089
18.7333,-0.0089
18.7361,-0.0114
18.7389,0.0019
18.7417,0.008
18.7444,-0.0168
18.7472,0.0009
18.75,-0.0178
18.7528,-0.017
18.7556,0.0035
18.7583,-0.0003
18.7611,0.007
18.7639,-0.0048
18.7667,-0.0071
18.7694,0.0075
18.7722,0.0005
18.775,0.0285
18.7778,0.0373
18.7806,0.0429
18.7833,0.0344
18.7861,0.0422
18.7889,0.0511
18.7917,0.054
18.7944,0.0638
18.7972,0.0524
18.8,0.0622
18.8028,0.0637
18.8056,0.0676
18.8083,0.0841
18.8111,0.0805
18.8139,0.0922
18.8167,0.0971
18.8194,0.0945
18.8222,0.1081
18.825,0.1021
18.8278,0.1188
18.8306,0.1281
18.8333,0.1172
18.8361,0.1057
18.8389,0.1326
18.8417,0.1065
18.8444,0.1225
18.8472,0.1333
18.85,0.1346
18.8528,0.1311
18.8556,0.1499
18.8583,0.1449
18.8611,0.1453
18.8639,0.1581
18.8667,0.1456
18.8694,0.1408
18.8722,0.1369
18.875,0.1677
18.8778,0.1454
18.8806,0.1468
18.8833,0.1295
18.8861,0.153
18.8889,0.1669
18.8917,0.1593
18.8944,0.1621
18.8972,0.1536
18.9,0.1344
18.9028,0.1387
18.9056,0.1555
18.9083,0.157
18.9111,0.1356
18.9139,0.147
18.9167,0.1424
18.9194,0.1238
18.9222,0.1337
18.925,0.136
18.9278,0.1372
18.9306,0.1068
18.9333,0.1318
18.9361,0.1284
18.9389,0.0969
18.9417,0.1067
18.9444,0.1125
18.9472,0.0949
18.95,0.0873
18.9528,0.104
18.9556,0.0854
18.9583,0.07
18.9611,0.0815
18.9639,0.0877
18.9667,0.0694
18.9694,0.0734
18.9722,0.0435
18.975,0.0631
18.9778,0.0632
18.9806,0.0353
18.9833,0.0263
18.9861,0.0203
18.9889,0.0237
18.9917,0.0202
18.9944,0.017
18.9972,0.0164
19.0,-0.0002
19.0028,-0.0021
19.0056,-0.0045
19.0083,0.0005
19.0111,0.0004
19.0139,0.0117
19.0167,-0.0043
19.0194,0.0171
19.0222,-0.0005
19.025,-0.0082
19.0278,-0.0122
19.0306,0.0017
19.0333,0.015
19.0361,0.0008
19.0389,0.0048
19.0417,0.0115
19.0444,0.0155
19.0472,-0.0023
19.05,0.0072
19.0528,0.0029
19.0556,0.0052
19.0583,-0.0058
19.0611,-0.0009
19.0639,-0.0106
19.0667,0.0002
19.0694,0.0011
19.0722,0.0145
19.075,0.0118
19.0778,0.001
19.0806,0.0085
19.0833,-0.0122
19.0861,-0.0088
19.0889,-0.0145
19.0917,-0.0001
19.0944,0.0033
19.0972,0.002
19.1,-0.0152
19.1028,0.0012
19.1056,-0.0023
19.1083,-0.0001
19.1111,-0.008
19.1139,0.0065
19.1167,-0.0087
19.1194,0.0046
19.1222,-0.006
19.125,-0.0084
19.1278,-0.0075
19.1306,-0.0027
19.1333,0.0138
19.1361,0.0112
19.1389,0.0076
19.1417,-0.0025
19.1444,-0.0123
19.1472,-0.0111
19.15,-0.0012
19.1528,0.0043
19.1556,0.017
19.1583,0.016
19.1611,-0.0067
19.1639,-0.006
19.1667,0.0147
19.1694,-0.0144
19.1722,0.0017
19.175,-0.0008
19.1778,-0.0161
19.1806,0.0056
19.1833,0.0066
19.1861,0.0035
19.1889,0.0009
19.1917,-0.011
19.1944,0.0092
19.1972,0.0005
19.2,0.0064
19.2028,0.0126
19.2056,0.0117
19.2083,-0.0217
19.2111,-0.0016
19.2139,0.0048
19.2167,0.0098
19.2194,0.0013
19.2222,-0.0023
19.225,-0.0009
19.2278,-0.0062
19.2306,-0.0081
19.2333,-0.0109
19.2361,-0.0098
19.2389,-0.0051
19.2417,0.0064
19.2444,0.0125
19.2472,-0.0005
19.25,0.0019
19.2528,0.0258
19.2556,-0.0085
19.2583,-0.0142
19.2611,0.011
19.2639,0.005
19.2667,0.0034
19.2694,-0.001
19.2722,-0.0112
19.275,0.0017
19.2778,-0.0033
19.2806,0.0102
19.2833,-0.0048
19.2861,-0.0024
19.2889,0.0026
19.2917,-0.0092
19.2944,0.0059
19.2972,-0.0081
19.3,-0.0059
19.3028,0.0218
19.3056,0.0004
19.3083,0.0083
19.3111,0.0125
19.3139,0.0112
19.3167,0.0082
19.3194,-0.0084
19.3222,0.0017
19.325,0.0107
19.3278,-0.0021
19.3306,-0.0082
19.3333,0.0082
19.3361,0.0194
19.3389,-0.0112
19.3417,0.0086
19.3444,-0.015
19.3472,-0.0048
19.35,-0.0105
19.3528,0.004
19.3556,-0.0043
19.3583,0.0016
19.3611,0.0088
19.3639,-0.0009
19.3667,0.0061
19.3694,0.0015
19.3722,0.0214
19.375,0.0198
19.3778,0.0025
19.3806,0.005
19.3833,-0.0062
19.3861,0.0032
19.3889,-0.0155
19.3917,-0.0092
19.3944,-0.0059
19.3972,0.008
19.4,-0.0002
19.4028,-0.0036
19.4056,-0.0055
19.4083,-0.0113
19.4111,-0.0085
19.4139,0.0024
19.4167,-0.016
19.4194,0.0068
19.4222,-0.0026
19.425,-0.0111
19.4278,0.0028
19.4306,0.0001
19.4333,0.0073
19.4361,-0.0066
19.4389,-0.0251
19.4417,-0.0138
19.4444,-0.0059
19.4472,-0.0013
19.45,-0.0245
19.4528,0.005
19.4556,-0.003
19.4583,0.0086
19.4611,0.0098
19.4639,0.007
19.4667,0.0131
19.4694,0.0162
19.4722,0.028
19.475,0.0465
19.4778,0.0461
19.4806,0.0461
19.4833,0.0533
19.4861,0.039
19.4889,0.0529
19.4917,0.0663
19.4944,0.0476
19.4972,0.0622
19.5,0.0611
19.5028,0.0605
19.5056,0.0664
19.5083,0.0671
19.5111,0.057
19.5139,0.0642
19.5167,0.0754
19.5194,0.0538
19.5222,0.0714
19.525,0.0881
19.5278,0.0707
19.5306,0.0781
19.5333,0.0917
19.5361,0.0797
19.5389,0.0886
19.5417,0.0665
19.5444,0.0739
19.5472,0.0848
19.55,0.0918
19.5528,0.078
19.5556,0.07
19.5583,0.065
19.5611,0.0643
19.5639,0.0787
19.5667,0.0771
19.5694,0.062
19.5722,0.0564
19.575,0.0547
19.5778,0.0439
19.5806,0.0457
19.5833,0.0496
19.5861,0.0574
19.5889,0.0385
19.5917,0.0166
19.5944,0.0312
19.5972,0.0194
19.6,0.0351
19.6028,0.0224
19.6056,0.0257
19.6083,0.0321
19.6111,0.029
19.6139,0.0162
19.6167,0.0063
19.6194,-0.0081
19.6222,-0.0198
19.625,-0.007
19.6278,0.0078
19.6306,0.0102
19.6333,-0.0013
19.6361,0.0081
19.6389,-0.0085
19.6417,-0.0017
19.6444,0.013
19.6472,0.006
19.65,0.0128
19.6528,-0.0002
19.6556,-0.0073
19.6583,-0.0001
19.6611,0.0134
19.6639,0.0141
19.6667,0.0077
19.6694,-0.0237
19.6722,-0.0093
19.675,0.0067
19.6778,0.0034
19.6806,0.0021
19.6833,-0.0112
19.6861,-0.0126
19.6889,-0.0049
19.6917,-0.0166
19.6944,-0.0102
19.6972,-0.0414
19.7,-0.0387
19.7028,-0.0503
19.7056,-0.0403
19.7083,-0.0425
19.7111,-0.0398
19.7139,-0.0153
19.7167,0.0234
19.7194,0.1129
19.7222,0.2042
19.725,0.3084
19.7278,0.4099
19.7306,0.4662
19.7333,0.5553
19.7361,0.6211
19.7389,0.6852
19.7417,0.7243
19.7444,0.7487
19.7472,0.782
19.75,0.7968
19.7528,0.803
19.7556,0.793
19.7583,0.7644
19.7611,0.7233
19.7639,0.6812
19.7667,0.6153
19.7694,0.5663
19.7722,0.4789
19.775,0.4187
19.7778,0.2967
19.7806,0.2454
19.7833,0.1313
19.7861,0.0308
19.7889,-0.0088
19.7917,-0.0299
19.7944,-0.0679
19.7972,-0.0799
19.8,-0.0918
19.8028,-0.1039
19.8056,-0.1255
19.8083,-0.1124
19.8111,-0.1159
19.8139,-0.1219
19.8167,-0.117
19.8194,-0.1037
19.8222,-0.0989
19.825,-0.0518
19.8278,-0.0444
19.8306,-0.0477
19.8333,-0.0076
19.8361,-0.0067
19.8389,0.0168
19.8417,0.0199
19.8444,0.0097
19.8472,0.0188
19.85,-0.0168
19.8528,0.0123
19.8556,0.0144
19.8583,-0.0194
19.8611,-0.0123
19.8639,-0.0053
19.8667,-0.0092
19.8694,0.0044
19.8722,-0.0169
19.875,0.0023
19.8778,0.0006
19.8806,0.0023
19.8833,-0.0122
19.8861,-0.0121
19.8889,-0.0011
19.8917,-0.0178
19.8944,0.0035
19.8972,0.0098
19.9,0.0217
19.9028,-0.0084
19.9056,-0.0049
19.9083,0.0031
19.9111,0.0082
19.9139,-0.0093
19.9167,-0.0063
19.9194,0.0075
19.9222,-0.0042
19.925,-0.0052
19.9278,-0.0239
19.9306,-0.0111
19.9333,-0.0043
19.9361,-0.0025
19.9389,-0.01
19.9417,-0.0022
19.9444,-0.0191
19.9472,-0.002
19.95,0.02
19.9528,0.0008
19.9556,0.0213
19.9583,0.0204
19.9611,0.0269
19.9639,0.0112
19.9667,0.037
19.9694,0.0336
19.9722,0.0382
19.975,0.0272
19.9778,0.0469
19.9806,0.0564
19.9833,0.0639
19.9861,0.0648
19.9889,0.0761
19.9917,0.0721
19.9944,0.1057
19.9972,0.0689
20.0,0.0733
20.0028,0.1007
20.0056,0.0978
20.0083,0.1006
20.0111,0.1086
20.0139,0.0916
20.0167,0.1168
20.0194,0.1157
20.0222,0.1266
20.025,0.1235
20.0278,0.1092
20.0306,0.1378
20.0333,0.1363
20.0361,0.1347
20.0389,0.1359
20.0417,0.136
20.0444,0.1517
20.0472,0.1457
20.05,0.1422
20.0528,0.1291
20.0556,0.1522
20.0583,0.1587
20.0611,0.1768
20.0639,0.1323
20.0667,0.1336
20.0694,0.1422
20.0722,0.1416
20.075,0.1434
20.0778,0.1572
20.0806,0.1524
20.0833,0.1745
20.0861,0.1563
20.0889,0.1632
20.0917,0.1406
20.0944,0.1342
20.0972,0.1417
20.1,0.1323
20.1028,0.1293
20.1056,0.151
20.1083,0.1358
20.1111,0.1231
20.1139,0.1269
20.1167,0.1081
20.1194,0.1152
20.1222,0.1085
20.125,0.1163
20.1278,0.1151
20.1306,0.1149
20.1333,0.0976
20.1361,0.1041
20.1389,0.0866
20.1417,0.0926
20.1444,0.0959
20.1472,0.0887
20.15,0.067
20.1528,0.0719
20.1556,0.0627
20.1583,0.0634
20.1611,0.0695
20.1639,0.0548
20.1667,0.0404
20.1694,0.0472
20.1722,0.0245
20.175,0.0328
20.1778,0.017
20.1806,0.0285
20.1833,0.0008
20.1861,-0.0077
20.1889,0.0049
20.1917,0.0109
20.1944,0.0036
20.1972,0.0125
20.2,-0.0032
20.2028,-0.0026
20.2056,0.001
20.2083,-0.0128
20.2111,-0.0031
20.2139,0.006
20.2167,-0.0064
20.2194,-0.0108
20.2222,0.0025
20.225,-0.0069
20.2278,0.0077
20.2306,-0.0118
20.2333,0.0152
20.2361,-0.0048
20.2389,0.0152
20.2417,0.0021
20.2444,0.0004
20.2472,-0.0142
20.25,0.0058
20.2528,0.0005
20.2556,0.0123
20.2583,-0.0088
20.2611,-0.0141
20.2639,0.004
20.2667,-0.0066
20.2694,0.0021
20.2722,-0.0049
20.275,0.0015
20.2778,-0.0049
20.2806,0.0107
20.2833,-0.0096
20.2861,-0.0241
20.2889,-0.0102
20.2917,0.0123
20.2944,0.0054
20.2972,-0.0051
20.3,-0.0091
20.3028,0.0124
20.3056,-0.0054
20.3083,0.0182
20.3111,0.0078
20.3139,0.0044
20.3167,0.0014
20.3194,-0.0023
20.3222,-0.002
20.325,0.0004
20.3278,-0.0106
20.3306,-0.0225
20.3333,0.0032
20.3361,-0.0049
20.3389,0.0076
20.3417,-0.0024
20.3444,0.0133
20.3472,-0.0106
20.35,-0.0055
20.3528,-0.008
20.3556,0.0068
20.3583,-0.0069
20.3611,0.0003
20.3639,0.005
20.3667,0.015
20.3694,0.0147
20.3722,0.0044
20.375,-0.0142
20.3778,0.0118
20.3806,-0.0029
20.3833,0.0064
20.3861,0.0085
20.3889,0.0079
20.3917,-0.0059
20.3944,-0.0112
20.3972,0.0034
20.4,-0.0076
20.4028,-0.008
20.4056,-0.0104
20.4083,-0.0019
20.4111,-0.0015
20.4139,0.0051
20.4167,-0.0026
20.4194,-0.0079
20.4222,0.0074
20.425,-0.0011
20.4278,0.0073
20.4306,-0.0034
20.4333,-0.0028
20.4361,-0.0148
20.4389,-0.0197
20.4417,-0.0036
20.4444,-0.0073
20.4472,0.0038
20.45,0.0099
20.4528,0.0134
20.4556,-0.0027
20.4583,0.0087
20.4611,-0.0029
20.4639,0.0103
20.4667,0.0113
20.4694,-0.0031
20.4722,0.0131
20.475,0.0058
20.4778,-0.0059
20.4806,0.0067
20.4833,-0.0068
20.4861,-0.0048
20.4889,-0.006
20.4917,-0.0066
20.4944,0.0137
20.4972,0.004
20.5,-0.0134
20.5028,-0.0039
20.5056,0.0092
20.5083,0.01
20.5111,-0.0048
20.5139,0.0039
20.5167,0.0063
20.5194,-0.0088
20.5222,0.0192
20.525,0.0101
20.5278,-0.0185
20.5306,-0.0146
20.5333,-0.0127
20.5361,-0.0146
20.5389,-0.0024
20.5417,-0.02
20.5444,0.004
20.5472,0.0031
20.55,0.0186
20.5528,-0.0062
20.5556,0.0068
20.5583,-0.0031
20.5611,-0.021
20.5639,0.0081
20.5667,-0.0149
20.5694,0.0008
20.5722,-0.0141
20.575,0.0075
20.5778,-0.0168
20.5806,-0.0101
20.5833,0.0018
20.5861,0.0031
20.5889,0.0119
20.5917,0.0171
20.5944,0.0127
20.5972,-0.0077
20.6,-0.0079
20.6028,0.0009
20.6056,-0.0297
20.6083,-0.0116
20.6111,-0.0102
20.6139,0.0111
20.6167,0.026
20.6194,0.0149
20.6222,0.0015
20.625,-0.0113
20.6278,0.0
20.6306,0.0118
20.6333,-0.0031
20.6361,0.0111
20.6389,0.0154
20.6417,0.0231
20.6444,0.0154
20.6472,0.0383
20.65,0.0548
20.6528,0.0344
20.6556,0.0515
20.6583,0.0583
20.6611,0.0702
20.6639,0.0525
20.6667,0.0719
20.6694,0.058
20.6722,0.0711
20.675,0.0568
20.6778,0.0726
20.6806,0.0584
20.6833,0.0749
20.6861,0.0718
20.6889,0.0803
20.6917,0.0864
20.6944,0.0729
20.6972,0.066
20.7,0.0863
20.7028,0.1003
20.7056,0.0848
20.7083,0.0964
20.7111,0.0837
20.7139,0.0875
20.7167,0.0639
20.7194,0.0641
20.7222,0.0691
20.725,0.0636
20.7278,0.0658
20.7306,0.0571
20.7333,0.0373
20.7361,0.0527
20.7389,0.045
20.7417,0.0471
20.7444,0.0473
20.7472,0.0492
20.75,0.0411
20.7528,0.0236
20.7556,0.0213
20.7583,0.0306
20.7611,0.0184
20.7639,0.0156
20.7667,-0.0011
20.7694,0.0041
20.7722,-0.0204
20.775,-0.0027
20.7778,-0.0046
20.7806,-0.008
20.7833,0.011
20.7861,0.0076
20.7889,-0.0005
20.7917,-0.0062
20.7944,0.0053
20.7972,0.0106
20.8,-0.0175
20.8028,-0.0188
20.8056,0.0128
20.8083,0.0156
20.8111,-0.0016
20.8139,0.0056
20.8167,0.0137
20.8194,0.0001
20.8222,-0.0003
20.825,-0.0066
20.8278,-0.0044
20.8306,0.0064
20.8333,-0.0004
20.8361,-0.0139
20.8389,-0.0535
20.8417,-0.0516
20.8444,-0.0339
20.8472,-0.0338
20.85,-0.0328
20.8528,0.0115
20.8556,0.0964
20.8583,0.2226
20.8611,0.321
20.8639,0.4216
20.8667,0.5079
20.8694,0.5866
20.8722,0.6522
20.875,0.7124
20.8778,0.77
20.8806,0.7967
20.8833,0.7971
20.8861,0.7961
20.8889,0.7723
20.8917,0.7248
20.8944,0.6814
20.8972,0.6395
20.9,0.5337
20.9028,0.4496
20.9056,0.3601
20.9083,0.2516
20.9111,0.1518
20.9139,0.0289
20.9167,-0.0298
20.9194,-0.0489
20.9222,-0.056
20.925,-0.0896
20.9278,-0.0958
20.9306,-0.1218
20.9333,-0.1234
20.9361,-0.1195
20.9389,-0.0961
20.9417,-0.0917
20.9444,-0.1001
20.9472,-0.0812
20.95,-0.0619
20.9528,-0.0221
20.9556,-0.0112
20.9583,-0.0178
20.9611,-0.0013
20.9639,-0.0036
20.9667,0.0145
20.9694,-0.0243
20.9722,-0.0034
20.975,-0.0216
20.9778,-0.025
20.9806,-0.0157
20.9833,-0.0098
20.9861,0.0065
20.9889,0.0005
20.9917,-0.0027
20.9944,-0.01
20.9972,-0.0055
21.0,0.0094
21.0028,-0.0066
21.0056,-0.0112
21.0083,0.0033
21.0111,-0.0009
21.0139,-0.005
21.0167,0.0144
21.0194,-0.0205
21.0222,-0.0174
21.025,0.0059
21.0278,-0.0147
21.0306,-0.0119
21.0333,-0.0185
21.0361,0.0072
21.0389,-0.0051
21.0417,0.0
21.0444,0.0089
21.0472,0.0068
21.05,-0.0065
21.0528,-0.0059
21.0556,-0.0135
21.0583,0.0027
21.0611,0.0169
21.0639,0.0044
21.0667,0.0204
21.0694,0.0439
21.0722,0.0325
21.075,0.025
21.0778,0.044
21.0806,0.0334
21.0833,0.0791
21.0861,0.0746
21.0889,0.0743
21.0917,0.0678
21.0944,0.0697
21.0972,0.089
21.1,0.091
21.1028,0.091
21.1056,0.0957
21.1083,0.0983
21.1111,0.1249
21.1139,0.1197
21.1167,0.1215
21.1194,0.1126
21.1222,0.1296
21.125,0.1213
21.1278,0.1434
21.1306,0.1312
21.1333,0.1429
21.1361,0.1355
21.1389,0.1367
21.1417,0.1431
21.1444,0.1554
21.1472,0.1668
21.15,0.143
21.1528,0.1624
21.1556,0.1591
21.1583,0.1555
21.1611,0.1455
21.1639,0.1292
21.1667,0.1566
21.1694,0.138
21.1722,0.1509
21.175,0.1523
21.1778,0.145
21.1806,0.1413
21.1833,0.1342
21.1861,0.1228
21.1889,0.1369
21.1917,0.1343
21.1944,0.1234
21.1972,0.1167
21.2,0.1324
21.2028,0.1407
21.2056,0.1226
21.2083,0.1322
21.2111,0.0978
21.2139,0.1105
21.2167,0.0941
21.2194,0.1118
21.2222,0.0972
21.225,0.0885
21.2278,0.0557
21.2306,0.0771
21.2333,0.0587
21.2361,0.0684
21.2389,0.0654
21.2417,0.0505
21.2444,0.0425
21.2472,0.0344
21.25,0.0252
21.2528,0.0245
21.2556,0.0186
21.2583,0.0092
21.2611,0.0112
21.2639,0.0042
21.2667,0.0116
21.2694,-0.0022
21.2722,-0.0177
21.275,0.0163
21.2778,-0.0083
21.2806,-0.002
21.2833,0.0084
21.2861,-0.0162
21.2889,0.0007
21.2917,-0.0099
21.2944,0.0064
21.2972,-0.0019
21.3,0.0103
21.3028,-0.0038
21.3056,0.0044
21.3083,-0.0021
21.3111,0.008
21.3139,-0.0088
21.3167,-0.0215
21.3194,-0.0012
21.3222,0.0108
21.325,0.0122
21.3278,0.0245
21.3306,0.0034
21.3333,-0.001
21.3361,0.003
21.3389,-0.0112
21.3417,-0.0088
21.3444,-0.0015
21.3472,0.0065
21.35,0.0075
21.3528,0.0117
21.3556,0.0245
21.3583,0.0046
21.3611,0.0045
21.3639,0.0193
21.3667,0.0079
21.3694,0.0244
21.3722,0.0057
21.375,-0.0129
21.3778,0.019
21.3806,-0.0099
21.3833,0.0046
21.3861,0.0003
21.3889,-0.008
21.3917,0.0055
21.3944,0.0042
21.3972,0.0008
21.4,-0.0017
21.4028,-0.0104
21.4056,-0.0043
21.4083,-0.0065
21.4111,-0.0002
21.4139,0.012
21.4167,-0.0052
21.4194,0.0059
21.4222,0.0008
21.425,-0.0068
21.4278,-0.0034
21.4306,0.0115
21.4333,-0.0074
21.4361,-0.0024
21.4389,0.0023
21.4417,-0.0026
21.4444,0.0165
21.4472,-0.0041
21.45,0.0065
21.4528,-0.0054
21.4556,0.0075
21.4583,-0.015
21.4611,-0.011
21.4639,-0.001
21.4667,0.0107
21.4694,-0.0116
21.4722,-0.0056
21.475,-0.0005
21.4778,0.0063
21.4806,-0.0029
21.4833,-0.0017
21.4861,0.0125
21.4889,-0.0107
21.4917,-0.0161
21.4944,0.0065
21.4972,0.0059
21.5,-0.0009
21.5028,-0.0102
21.5056,0.0154
21.5083,-0.0043
21.5111,0.003
21.5139,-0.0078
21.5167,-0.0049
21.5194,0.0025
21.5222,0.0125
21.525,-0.0032
21.5278,0.0188
21.5306,0.0024
21.5333,-0.0098
21.5361,0.0204
21.5389,-0.0038
21.5417,0.0012
21.5444,0.0085
21.5472,0.0035
21.55,0.0171
21.5528,0.0049
21.5556,0.0062
21.5583,-0.0077
21.5611,-0.0063
21.5639,0.0124
21.5667,0.0097
21.5694,0.0091
21.5722,-0.0072
21.575,0.0068
21.5778,0.0212
21.5806,-0.0062
21.5833,-0.0092
21.5861,-0.0074
21.5889,-0.0223
21.5917,0.0165
21.5944,-0.0118
21.5972,0.0013
21.6,0.0059
21.6028,-0.011
21.6056,-0.0016
21.6083,-0.0049
21.6111,0.0082
21.6139,-0.0095
21.6167,0.0163
21.6194,-0.0063
21.6222,0.0049
21.625,-0.0059
21.6278,0.0048
21.6306,-0.0014
21.6333,0.0004
21.6361,-0.0069
21.6389,0.0015
21.6417,0.002
21.6444,-0.0025
21.6472,0.0092
21.65,0.0228
21.6528,0.0125
21.6556,0.0172
21.6583,0.0188
21.6611,0.0308
21.6639,0.0143
21.6667,0.0544
21.6694,0.0529
21.6722,0.0374
21.675,0.0595
21.6778,0.0642
21.6806,0.0614
21.6833,0.0639
21.6861,0.0534
21.6889,0.065
21.6917,0.0698
21.6944,0.0534
21.6972,0.0678
21.7,0.0805
21.7028,0.0721
21.7056,0.0813
21.7083,0.081
21.7111,0.0873
21.7139,0.0838
21.7167,0.0845
21.7194,0.0841
21.7222,0.0734
21.725,0.0975
21.7278,0.08
21.7306,0.0776
21.7333,0.0796
21.7361,0.055
21.7389,0.0554
21.7417,0.0602
21.7444,0.0652
21.7472,0.0552
21.75,0.0748
21.7528,0.0547
21.7556,0.0523
21.7583,0.0524
21.7611,0.0436
21.7639,0.0418
21.7667,0.0233
21.7694,0.0096
21.7722,0.0056
21.775,0.0069
21.7778,0.0182
21.7806,-0.0108
21.7833,0.0096
21.7861,0.0059
21.7889,-0.0095
21.7917,0.0154
21.7944,-0.0064
21.7972,-0.0112
21.8,0.0062
21.8028,0.009
21.8056,0.0007
21.8083,-0.0088
21.8111,-0.0078
21.8139,0.003
21.8167,0.0018
21.8194,-0.0059
21.8222,0.0082
21.825,-0.0203
21.8278,-0.006
21.8306,-0.0005
21.8333,-0.0288
21.8361,-0.0097
21.8389,-0.0069
21.8417,0.0134
21.8444,-0.0165
21.8472,-0.0282
21.85,-0.0461
21.8528,-0.0325
21.8556,-0.025
21.8583,-0.0148
21.8611,0.0032
21.8639,0.1453
21.8667,0.2594
21.8694,0.3608
21.8722,0.4607
21.875,0.5323
21.8778,0.6298
21.8806,0.6971
21.8833,0.7535
21.8861,0.7849
21.8889,0.7877
21.8917,0.7775
21.8944,0.7672
21.8972,0.7367
21.9,0.6738
21.9028,0.6052
21.9056,0.5098
21.9083,0.4276
21.9111,0.3163
21.9139,0.2024
21.9167,0.0979
21.9194,-0.0046
21.9222,-0.0352
21.925,-0.0575
21.9278,-0.0749
21.9306,-0.0887
21.9333,-0.0995
21.9361,-0.1209
21.9389,-0.1268
21.9417,-0.0945
21.9444,-0.0997
21.9472,-0.0909
21.95,-0.0787
21.9528,-0.0462
21.9556,-0.0236
21.9583,0.0107
21.9611,-0.0092
21.9639,0.002
21.9667,-0.0036
21.9694,0.0085
21.9722,0.0079
21.975,-0.0107
21.9778,-0.0109
21.9806,-0.0033
21.9833,-0.0235
21.9861,-0.0221
21.9889,0.0035
21.9917,0.0125
21.9944,-0.003
21.9972,0.0116
22.0,0.0082
22.0028,0.01
22.0056,-0.0061
22.0083,-0.008
22.0111,-0.0022
22.0139,0.0111
22.0167,-0.0062
22.0194,0.0061
22.0222,0.0151
22.025,-0.0063
22.0278,-0.0039
22.0306,0.0035
22.0333,0.0081
22.0361,-0.0024
22.0389,0.008
22.0417,0.0039
22.0444,0.0067
22.0472,-0.0019
22.05,-0.0019
22.0528,-0.0169
22.0556,-0.0024
22.0583,0.0085
22.0611,0.0145
22.0639,0.0293
22.0667,0.0317
22.0694,0.0499
22.0722,0.0545
22.075,0.0343
22.0778,0.0571
22.0806,0.0671
22.0833,0.0733
22.0861,0.0759
22.0889,0.0844
22.0917,0.0847
22.0944,0.0819
22.0972,0.0862
22.1,0.09
22.1028,0.1309
22.1056,0.1362
22.1083,0.1269
22.1111,0.1258
22.1139,0.1265
22.1167,0.1354
22.1194,0.1327
22.1222,0.1459
22.125,0.1406
22.1278,0.1439
22.1306,0.1452
22.1333,0.1463
22.1361,0.1504
22.1389,0.1517
22.1417,0.1708
22.1444,0.1447
22.1472,0.1458
22.15,0.157
22.1528,0.1534
22.1556,0.1537
22.1583,0.1603
22.1611,0.1441
22.1639,0.1453
22.1667,0.1385
22.1694,0.139
22.1722,0.1338
22.175,0.1473
22.1778,0.1329
22.1806,0.1297
22.1833,0.129
22.1861,0.1308
22.1889,0.1247
22.1917,0.1186
22.1944,0.1075
22.1972,0.1081
22.2,0.1003
22.2028,0.0973
22.2056,0.0967
22.2083,0.101
22.2111,0.0932
22.2139,0.0805
22.2167,0.0702
22.2194,0.0513
22.2222,0.0574
22.225,0.0551
22.2278,0.0512
22.2306,0.0342
22.2333,0.0258
22.2361,0.0242
22.2389,0.021
22.2417,0.0211
22.2444,-0.0156
22.2472,-0.0018
22.25,0.0069
22.2528,-0.0038
22.2556,0.0014
22.2583,-0.0122
22.2611,0.0038
22.2639,-0.0102
22.2667,-0.0268
22.2694,0.0015
22.2722,0.0301
22.275,-0.0157
22.2778,0.0111
22.2806,-0.0084
22.2833,-0.0033
22.2861,-0.0145
22.2889,-0.0025
22.2917,-0.0162
22.2944,0.0108
22.2972,0.0021
22.3,-0.0031
22.3028,-0.006
22.3056,0.008
22.3083,-0.0145
22.3111,-0.0032
22.3139,-0.0264
22.3167,0.0035
22.3194,-0.0086
22.3222,-0.0087
22.325,-0.0021
22.3278,-0.0102
22.3306,-0.0221
22.3333,0.0047
22.3361,0.0028
22.3389,-0.0022
22.3417,-0.0091
22.3444,-0.0038
22.3472,-0.0114
22.35,0.0186
22.3528,-0.0037
22.3556,0.0002
22.3583,0.0062
22.3611,-0.0098
22.3639,-0.0148
22.3667,0.0173
22.3694,0.0089
22.3722,-0.0098
22.375,-0.0066
22.3778,-0.0133
22.3806,-0.0068
22.3833,0.0022
22.3861,-0.0093
22.3889,-0.0131
22.3917,0.0051
22.3944,0.0302
22.3972,0.0116
22.4,-0.0066
22.4028,0.0241
22.4056,-0.0102
22.4083,0.0095
22.4111,0.0136
22.4139,-0.0077
22.4167,0.0258
22.4194,-0.0019
22.4222,0.0152
22.425,-0.0139
22.4278,0.0137
22.4306,0.02
22.4333,0.0217
22.4361,-0.0027
22.4389,-0.0132
22.4417,-0.004
22.4444,-0.0121
22.4472,0.0044
22.45,-0.0077
22.4528,0.0011
22.4556,-0.0128
22.4583,0.0067
22.4611,0.0019
22.4639,-0.004
22.4667,0.0019
22.4694,0.0036
22.4722,0.001
22.475,-0.0062
22.4778,0.0104
22.4806,-0.0047
22.4833,0.0007
22.4861,-0.0
22.4889,0.0169
22.4917,0.0078
22.4944,-0.0065
22.4972,-0.015
22.5,0.0139
22.5028,-0.0102
22.5056,-0.0005
22.5083,-0.0005
22.5111,0.0069
22.5139,-0.0136
22.5167,0.0078
22.5194,-0.0018
22.5222,-0.0095
22.525,0.0028
22.5278,0.0146
22.5306,0.0163
22.5333,0.0118
22.5361,0.0005
22.5389,0.0084
22.5417,-0.0031
22.5444,0.008
22.5472,-0.0088
22.55,-0.001
22.5528,0.0011
22.5556,0.0013
22.5583,-0.0099
22.5611,-0.006
22.5639,0.0237
22.5667,-0.0142
22.5694,0.0085
22.5722,-0.0138
22.575,0.0088
22.5778,-0.0125
22.5806,0.0054
22.5833,0.0034
22.5861,0.0124
22.5889,-0.0059
22.5917,-0.0094
22.5944,-0.0044
22.5972,-0.006
22.6,-0.0104
22.6028,-0.0206
22.6056,0.0017
22.6083,-0.0018
22.6111,0.0038
22.6139,0.0109
22.6167,0.0102
22.6194,0.0165
22.6222,-0.008
22.625,0.0267
22.6278,0.0206
22.6306,-0.0049
22.6333,0.0245
22.6361,0.0294
22.6389,0.0239
22.6417,0.0452
22.6444,0.0453
22.6472,0.0487
22.65,0.0625
22.6528,0.0608
22.6556,0.0709
22.6583,0.0554
22.6611,0.0585
22.6639,0.079
22.6667,0.0861
22.6694,0.0931
22.6722,0.0777
22.675,0.0823
22.6778,0.0639
22.6806,0.0693
22.6833,0.0876
22.6861,0.0851
22.6889,0.0586
22.6917,0.0779
22.6944,0.076
22.6972,0.0902
22.7,0.0729
22.7028,0.077
22.7056,0.0842
22.7083,0.0744
22.7111,0.0742
22.7139,0.0668
22.7167,0.0875
22.7194,0.0793
22.7222,0.0538
22.725,0.0585
22.7278,0.0543
22.7306,0.0347
22.7333,0.0426
22.7361,0.0414
22.7389,0.0461
22.7417,0.0363
22.7444,0.0355
22.7472,0.0208
22.75,0.0275
22.7528,0.0058
22.7556,0.0146
22.7583,0.017
22.7611,-0.0076
22.7639,0.01
22.7667,0.0083
22.7694,-0.0087
22.7722,-0.012
22.775,0.0106
22.7778,-0.0015
22.7806,-0.0044
22.7833,0.0002
22.7861,0.0077
22.7889,-0.0123
22.7917,0.0064
22.7944,-0.0002
22.7972,-0.0034
22.8,0.0087
22.8028,0.0012
22.8056,-0.0046
22.8083,-0.0123
22.8111,0.0046
22.8139,0.0058
22.8167,-0.0118
22.8194,-0.0053
22.8222,0.0021
22.825,-0.018
22.8278,-0.0418
22.8306,-0.0396
22.8333,-0.0308
22.8361,-0.0383
22.8389,-0.0239
22.8417,-0.0109
22.8444,0.0808
