time,ecg
0.0,-0.0127
0.0028,0.0104
0.0056,-0.0066
0.0083,-0.0004
0.0111,0.0039
0.0139,0.0008
0.0167,0.0017
0.0194,-0.0037
0.0222,-0.0015
0.025,-0.0014
0.0278,0.012
0.0306,0.0152
0.0333,0.0032
0.0361,0.0165
0.0389,0.0078
0.0417,-0.0061
0.0444,-0.012
0.0472,-0.0093
0.05,0.0048
0.0528,-0.008
0.0556,0.0086
0.0583,0.0041
0.0611,0.0091
0.0639,0.0017
0.0667,-0.0026
0.0694,0.0018
0.0722,-0.0118
0.075,-0.0022
0.0778,-0.0068
0.0806,0.0034
0.0833,0.0021
0.0861,0.0
0.0889,0.0095
0.0917,0.0151
0.0944,0.0342
0.0972,0.0301
0.1,0.0368
0.1028,0.0245
0.1056,0.0431
0.1083,0.0494
0.1111,0.0527
0.1139,0.0396
0.1167,0.0741
0.1194,0.0684
0.1222,0.0674
0.125,0.0403
0.1278,0.0729
0.1306,0.0754
0.1333,0.0698
0.1361,0.078
0.1389,0.0916
0.1417,0.0799
0.1444,0.0887
0.1472,0.0833
0.15,0.0857
0.1528,0.0744
0.1556,0.0844
0.1583,0.0723
0.1611,0.0622
0.1639,0.0705
0.1667,0.0907
0.1694,0.0967
0.1722,0.0752
0.175,0.0679
0.1778,0.07
0.1806,0.0514
0.1833,0.0455
0.1861,0.0281
0.1889,0.063
0.1917,0.0436
0.1944,0.0532
0.1972,0.0376
0.2,0.0369
0.2028,0.0388
0.2056,0.038
0.2083,0.0152
0.2111,0.0043
0.2139,0.0076
0.2167,0.0102
0.2194,-0.0141
0.2222,0.0053
0.225,-0.0038
0.2278,-0.003
0.2306,0.0138
0.2333,-0.0019
0.2361,0.0327
0.2389,0.0129
0.2417,-0.0127
0.2444,-0.0156
0.2472,-0.0057
0.25,-0.0101
0.2528,-0.0027
0.2556,-0.0082
0.2583,-0.0003
0.2611,0.0011
0.2639,0.0144
0.2667,0.0094
0.2694,0.0059
0.2722,0.0105
0.275,0.0035
0.2778,-0.0225
0.2806,-0.0393
0.2833,-0.0313
0.2861,-0.0425
0.2889,-0.0394
0.2917,-0.0392
0.2944,-0.018
0.2972,0.056
0.3,0.1681
0.3028,0.2859
0.3056,0.3861
0.3083,0.4866
0.3111,0.5577
0.3139,0.6517
0.3167,0.7062
0.3194,0.7675
0.3222,0.7815
0.325,0.7899
0.3278,0.7874
0.3306,0.7679
0.3333,0.7413
0.3361,0.6947
0.3389,0.6037
0.3417,0.525
0.3444,0.4514
0.3472,0.3324
0.35,0.2032
0.3528,0.0927
0.3556,-0.0022
0.3583,-0.0325
0.3611,-0.0546
0.3639,-0.0759
0.3667,-0.0804
0.3694,-0.1212
0.3722,-0.1225
0.375,-0.1297
0.3778,-0.1227
0.3806,-0.1101
0.3833,-0.109
0.3861,-0.0636
0.3889,-0.0536
0.3917,-0.0195
0.3944,0.0175
0.3972,0.0046
0.4,-0.0129
0.4028,-0.0136
0.4056,-0.0017
0.4083,0.0021
0.4111,0.0122
0.4139,0.0146
0.4167,0.0051
0.4194,0.0099
0.4222,-0.0029
0.425,0.0075
0.4278,0.0108
0.4306,0.0006
0.4333,-0.0041
0.4361,0.0083
0.4389,-0.0121
0.4417,-0.0087
0.4444,-0.0015
0.4472,-0.0028
0.45,-0.0001
0.4528,-0.0213
0.4556,0.0062
0.4583,-0.0002
0.4611,0.0069
0.4639,-0.0011
0.4667,0.0083
0.4694,-0.0131
0.4722,0.0069
0.475,-0.0036
0.4778,-0.0069
0.4806,0.0072
0.4833,-0.0016
0.4861,0.0052
0.4889,-0.004
0.4917,-0.0116
0.4944,-0.0071
0.4972,0.0069
0.5,0.0206
0.5028,0.0171
0.5056,0.0404
0.5083,0.037
0.5111,0.0483
0.5139,0.0374
0.5167,0.0605
0.5194,0.0694
0.5222,0.0742
0.525,0.0825
0.5278,0.0808
0.5306,0.0886
0.5333,0.0998
0.5361,0.1101
0.5389,0.1018
0.5417,0.1097
0.5444,0.0936
0.5472,0.1188
0.55,0.1061
0.5528,0.1285
0.5556,0.1288
0.5583,0.1292
0.5611,0.1229
0.5639,0.1138
0.5667,0.1412
0.5694,0.1177
0.5722,0.1491
0.575,0.1328
0.5778,0.1564
0.5806,0.1465
0.5833,0.1372
0.5861,0.1547
0.5889,0.1507
0.5917,0.1393
0.5944,0.1537
0.5972,0.1629
0.6,0.1406
0.6028,0.1471
0.6056,0.1635
0.6083,0.1484
0.6111,0.148
0.6139,0.1353
0.6167,0.1212
0.6194,0.1286
0.6222,0.1418
0.625,0.1539
0.6278,0.1425
0.6306,0.1155
0.6333,0.1336
0.6361,0.1083
0.6389,0.0896
0.6417,0.0979
0.6444,0.1012
0.6472,0.0979
0.65,0.1076
0.6528,0.0868
0.6556,0.0806
0.6583,0.1012
0.6611,0.0681
0.6639,0.0569
0.6667,0.0658
0.6694,0.0698
0.6722,0.03
0.675,0.0258
0.6778,0.0434
0.6806,0.0263
0.6833,0.0213
0.6861,0.035
0.6889,0.0232
0.6917,0.0088
0.6944,-0.0006
0.6972,0.0138
0.7,0.0032
0.7028,0.0063
0.7056,0.0159
0.7083,0.0049
0.7111,0.0047
0.7139,0.0109
0.7167,0.0025
0.7194,-0.002
0.7222,-0.006
0.725,0.0187
0.7278,0.0026
0.7306,0.0091
0.7333,-0.0076
0.7361,0.0048
0.7389,0.0047
0.7417,-0.0013
0.7444,0.0111
0.7472,-0.0013
0.75,0.0025
0.7528,0.0092
0.7556,-0.0051
0.7583,-0.0034
0.7611,0.0019
0.7639,-0.0017
0.7667,-0.0064
0.7694,-0.004
0.7722,-0.0066
0.775,-0.0064
0.7778,0.0071
0.7806,-0.0232
0.7833,-0.01
0.7861,0.0027
0.7889,-0.0027
0.7917,0.0072
0.7944,0.0135
0.7972,0.002
0.8,0.0024
0.8028,0.0043
0.8056,-0.0104
0.8083,-0.009
0.8111,-0.0034
0.8139,-0.0107
0.8167,0.0022
0.8194,-0.0112
0.8222,0.0288
0.825,-0.0116
0.8278,0.0109
0.8306,0.0067
0.8333,-0.0084
0.8361,0.0012
0.8389,0.0069
0.8417,-0.0082
0.8444,0.0012
0.8472,-0.0049
0.85,0.0109
0.8528,0.0023
0.8556,-0.0078
0.8583,0.0015
0.8611,0.0068
0.8639,0.0102
0.8667,0.0041
0.8694,-0.0129
0.8722,0.0066
0.875,-0.007
0.8778,0.0059
0.8806,-0.0015
0.8833,-0.005
0.8861,-0.0168
0.8889,0.0043
0.8917,0.001
0.8944,-0.0002
0.8972,-0.0081
0.9,0.003
0.9028,-0.0027
0.9056,0.0038
0.9083,-0.0007
0.9111,-0.0145
0.9139,0.0004
0.9167,-0.0039
0.9194,-0.0044
0.9222,-0.0015
0.925,0.0013
0.9278,-0.0053
0.9306,-0.0051
0.9333,-0.0062
0.9361,0.0124
0.9389,0.0096
0.9417,-0.0135
0.9444,-0.0083
0.9472,-0.0049
0.95,0.0021
0.9528,-0.0011
0.9556,0.003
0.9583,0.0027
0.9611,0.016
0.9639,-0.0019
0.9667,-0.0228
0.9694,0.0018
0.9722,0.0204
0.975,-0.0055
0.9778,0.0011
0.9806,-0.0023
0.9833,0.0018
0.9861,-0.0097
0.9889,0.0011
0.9917,-0.009
0.9944,0.0153
0.9972,0.0024
1.0,0.0003
1.0028,0.002
1.0056,0.0134
1.0083,0.0013
1.0111,-0.0033
1.0139,0.0056
1.0167,0.0112
1.0194,-0.0276
1.0222,-0.0023
1.025,-0.0049
1.0278,-0.0111
1.0306,0.0157
1.0333,0.0066
1.0361,-0.0013
1.0389,-0.0055
1.0417,-0.0078
1.0444,-0.0119
1.0472,-0.0115
1.05,-0.0136
1.0528,-0.016
1.0556,-0.0112
1.0583,0.0037
1.0611,0.0052
1.0639,0.0073
1.0667,0.0245
1.0694,-0.0105
1.0722,0.0097
1.075,0.0221
1.0778,0.0127
1.0806,0.0261
1.0833,0.025
1.0861,0.0297
1.0889,0.0457
1.0917,0.032
1.0944,0.0285
1.0972,0.049
1.1,0.0441
1.1028,0.0403
1.1056,0.0643
1.1083,0.0837
1.1111,0.0632
1.1139,0.0813
1.1167,0.0724
1.1194,0.0729
1.1222,0.0801
1.125,0.0811
1.1278,0.0821
1.1306,0.0965
1.1333,0.09
1.1361,0.0744
1.1389,0.0788
1.1417,0.0896
1.1444,0.0919
1.1472,0.0683
1.15,0.0693
1.1528,0.0782
1.1556,0.0585
1.1583,0.0807
1.1611,0.0733
1.1639,0.0738
1.1667,0.053
1.1694,0.0517
1.1722,0.0734
1.175,0.0438
1.1778,0.0545
1.1806,0.0414
1.1833,0.0291
1.1861,0.0291
1.1889,0.0475
1.1917,0.0235
1.1944,0.0379
1.1972,0.0095
1.2,0.0146
1.2028,-0.0058
1.2056,0.0108
1.2083,0.0029
1.2111,0.0009
1.2139,-0.0192
1.2167,-0.0234
1.2194,-0.0047
1.2222,0.0083
1.225,0.0072
1.2278,0.0025
1.2306,-0.011
1.2333,-0.0077
1.2361,-0.0181
1.2389,-0.0021
1.2417,-0.0019
1.2444,-0.01
1.2472,-0.0007
1.25,0.009
1.2528,0.0049
1.2556,-0.0011
1.2583,-0.0
1.2611,-0.0041
1.2639,-0.0147
1.2667,0.0004
1.2694,-0.0092
1.2722,-0.035
1.275,-0.0408
1.2778,-0.0385
1.2806,-0.0147
1.2833,-0.0316
1.2861,-0.0346
1.2889,0.0705
1.2917,0.1617
1.2944,0.2927
1.2972,0.3936
1.3,0.4916
1.3028,0.5846
1.3056,0.65
1.3083,0.7071
1.3111,0.7524
1.3139,0.7882
1.3167,0.7936
1.3194,0.7987
1.3222,0.7694
1.325,0.7234
1.3278,0.6905
1.3306,0.6319
1.3333,0.5341
1.3361,0.4554
1.3389,0.3499
1.3417,0.2394
1.3444,0.1158
1.3472,0.003
1.35,-0.0092
1.3528,-0.0438
1.3556,-0.0639
1.3583,-0.0939
1.3611,-0.1105
1.3639,-0.1049
1.3667,-0.1248
1.3694,-0.1173
1.3722,-0.0996
1.375,-0.1234
1.3778,-0.0674
1.3806,-0.0637
1.3833,-0.0436
1.3861,-0.0062
1.3889,0.0127
1.3917,0.0084
1.3944,-0.0046
1.3972,-0.0055
1.4,0.007
1.4028,-0.0156
1.4056,-0.0106
1.4083,-0.0034
1.4111,-0.0022
1.4139,-0.0055
1.4167,0.0062
1.4194,-0.0065
1.4222,0.0028
1.425,0.0033
1.4278,-0.0196
1.4306,-0.0066
1.4333,0.0136
1.4361,-0.0091
1.4389,0.018
1.4417,0.0095
1.4444,0.0116
1.4472,0.0036
1.45,0.0177
1.4528,-0.0064
1.4556,-0.0079
1.4583,-0.0253
1.4611,-0.0003
1.4639,-0.0139
1.4667,-0.0136
1.4694,-0.0093
1.4722,-0.0
1.475,-0.0092
1.4778,-0.0095
1.4806,0.0069
1.4833,-0.0067
1.4861,0.0077
1.4889,-0.0066
1.4917,0.0029
1.4944,0.0334
1.4972,0.0231
1.5,0.0178
1.5028,0.0448
1.5056,0.0399
1.5083,0.0651
1.5111,0.0515
1.5139,0.0521
1.5167,0.0651
1.5194,0.0655
1.5222,0.0597
1.525,0.0786
1.5278,0.0954
1.5306,0.1145
1.5333,0.0937
1.5361,0.0974
1.5389,0.1227
1.5417,0.1226
1.5444,0.1223
1.5472,0.1169
1.55,0.1193
1.5528,0.1283
1.5556,0.1397
1.5583,0.1125
1.5611,0.1371
1.5639,0.151
1.5667,0.1264
1.5694,0.1429
1.5722,0.1575
1.575,0.1468
1.5778,0.1578
1.5806,0.15
1.5833,0.1486
1.5861,0.1563
1.5889,0.1546
1.5917,0.1497
1.5944,0.1427
1.5972,0.1528
1.6,0.1389
1.6028,0.1504
1.6056,0.1545
1.6083,0.1569
1.6111,0.1462
1.6139,0.1486
1.6167,0.1437
1.6194,0.1605
1.6222,0.1195
1.625,0.1302
1.6278,0.1038
1.6306,0.1157
1.6333,0.1011
1.6361,0.1151
1.6389,0.0996
1.6417,0.0915
1.6444,0.0886
1.6472,0.0769
1.65,0.0906
1.6528,0.0821
1.6556,0.0741
1.6583,0.0699
1.6611,0.0614
1.6639,0.0501
1.6667,0.0326
1.6694,0.0358
1.6722,0.0417
1.675,0.0204
1.6778,0.0241
1.6806,0.0158
1.6833,-0.0062
1.6861,0.01
1.6889,-0.0274
1.6917,0.0072
1.6944,-0.0088
1.6972,0.0081
1.7,0.002
1.7028,0.0143
1.7056,-0.0222
1.7083,0.002
1.7111,0.019
1.7139,0.0008
1.7167,-0.0071
1.7194,0.0061
1.7222,-0.0011
1.725,0.0086
1.7278,0.004
1.7306,0.0017
1.7333,-0.0186
1.7361,-0.0124
1.7389,0.0116
1.7417,0.0113
1.7444,0.0031
1.7472,0.0068
1.75,-0.0143
1.7528,-0.0027
1.7556,-0.0024
1.7583,-0.001
1.7611,-0.003
1.7639,0.0108
1.7667,-0.0213
1.7694,0.0076
1.7722,0.0064
1.775,0.0096
1.7778,0.0093
1.7806,0.0016
1.7833,0.0048
1.7861,-0.0081
1.7889,-0.0003
1.7917,0.0085
1.7944,-0.0014
1.7972,-0.0022
1.8,0.0074
1.8028,-0.0142
1.8056,-0.0007
1.8083,0.0085
1.8111,0.0085
1.8139,0.0046
1.8167,-0.0122
1.8194,-0.0113
1.8222,-0.0002
1.825,-0.0021
1.8278,0.0088
1.8306,-0.0
1.8333,-0.0024
1.8361,0.0056
1.8389,0.0057
1.8417,-0.0004
1.8444,-0.0111
1.8472,-0.004
1.85,-0.0061
1.8528,0.0154
1.8556,-0.0189
1.8583,0.0028
1.8611,0.0128
1.8639,-0.0189
1.8667,0.0184
1.8694,0.0069
1.8722,-0.0078
1.875,0.0093
1.8778,0.0147
1.8806,-0.0005
1.8833,-0.0019
1.8861,0.0085
1.8889,-0.0016
1.8917,0.005
1.8944,0.0167
1.8972,0.0108
1.9,-0.0045
1.9028,-0.0104
1.9056,-0.0041
1.9083,0.0073
1.9111,-0.0069
1.9139,0.0028
1.9167,0.0048
1.9194,0.0039
1.9222,0.0041
1.925,-0.0052
1.9278,-0.0095
1.9306,0.0113
1.9333,-0.0105
1.9361,0.0025
1.9389,-0.0004
1.9417,-0.0063
1.9444,-0.0131
1.9472,0.0155
1.95,0.0071
1.9528,-0.0146
1.9556,0.0005
1.9583,-0.0022
1.9611,0.0032
1.9639,0.0081
1.9667,-0.0058
1.9694,0.0069
1.9722,0.0121
1.975,-0.0054
1.9778,-0.0066
1.9806,-0.0174
1.9833,-0.004
1.9861,0.0162
1.9889,0.0049
1.9917,-0.0081
1.9944,0.002
1.9972,0.0021
2.0,0.0205
2.0028,-0.0128
2.0056,0.0123
2.0083,-0.0022
2.0111,0.0035
2.0139,-0.0008
2.0167,0.0036
2.0194,-0.0143
2.0222,0.0035
2.025,0.007
2.0278,-0.0101
2.0306,-0.0071
2.0333,0.0027
2.0361,-0.0122
2.0389,0.0053
2.0417,0.0027
2.0444,0.0108
2.0472,-0.005
2.05,-0.0003
2.0528,0.0024
2.0556,-0.0024
2.0583,0.0067
2.0611,-0.0198
2.0639,0.0109
2.0667,-0.0059
2.0694,-0.0108
2.0722,0.0085
2.075,0.0097
2.0778,0.0241
2.0806,0.02
2.0833,0.0294
2.0861,0.013
2.0889,0.0234
2.0917,0.0249
2.0944,0.0281
2.0972,0.029
2.1,0.0675
2.1028,0.0597
2.1056,0.0789
2.1083,0.068
2.1111,0.0681
2.1139,0.0847
2.1167,0.06
2.1194,0.071
2.1222,0.067
2.125,0.0941
2.1278,0.0831
2.1306,0.0706
2.1333,0.0822
2.1361,0.0869
2.1389,0.0856
2.1417,0.0656
2.1444,0.0703
2.1472,0.089
2.15,0.0838
2.1528,0.0661
2.1556,0.0647
2.1583,0.0628
2.1611,0.0644
2.1639,0.0844
2.1667,0.0627
2.1694,0.0488
2.1722,0.0661
2.175,0.0729
2.1778,0.0486
2.1806,0.0479
2.1833,0.0464
2.1861,0.0318
2.1889,0.035
2.1917,0.0397
2.1944,0.028
2.1972,0.028
2.2,0.0218
2.2028,0.0004
2.2056,0.0394
2.2083,0.0063
2.2111,-0.0083
2.2139,-0.0132
2.2167,-0.0144
2.2194,0.0222
2.2222,-0.0035
2.225,0.0046
2.2278,-0.0225
2.2306,0.0076
2.2333,-0.0187
2.2361,0.0082
2.2389,0.0
2.2417,-0.0162
2.2444,-0.0133
2.2472,0.0063
2.25,0.0017
2.2528,-0.0127
2.2556,0.0028
2.2583,0.0055
2.2611,0.0057
2.2639,0.0052
2.2667,0.0001
2.2694,-0.0021
2.2722,0.0014
2.275,-0.0064
2.2778,-0.0047
2.2806,-0.0227
2.2833,-0.0258
2.2861,-0.03
2.2889,-0.0296
2.2917,-0.0311
2.2944,0.0034
2.2972,0.1038
2.3,0.1976
2.3028,0.3246
2.3056,0.4518
2.3083,0.5183
2.3111,0.6044
2.3139,0.6624
2.3167,0.7362
2.3194,0.7747
2.3222,0.7943
2.325,0.8066
2.3278,0.783
2.3306,0.7586
2.3333,0.7235
2.3361,0.6692
2.3389,0.6054
2.3417,0.5276
2.3444,0.4302
2.3472,0.346
2.35,0.2275
2.3528,0.133
2.3556,0.0349
2.3583,-0.0276
2.3611,-0.0424
2.3639,-0.0725
2.3667,-0.0863
2.3694,-0.1092
2.3722,-0.1184
2.375,-0.108
2.3778,-0.132
2.3806,-0.1133
2.3833,-0.1188
2.3861,-0.0896
2.3889,-0.0602
2.3917,-0.0395
2.3944,-0.0284
2.3972,-0.005
2.4,-0.0157
2.4028,0.0294
2.4056,0.0027
2.4083,0.0003
2.4111,-0.005
2.4139,0.0086
2.4167,-0.0116
2.4194,0.0011
2.4222,0.0089
2.425,-0.0138
2.4278,-0.0
2.4306,0.0076
2.4333,0.0018
2.4361,0.0095
2.4389,-0.0121
2.4417,0.0091
2.4444,0.0149
2.4472,-0.0036
2.45,0.0047
2.4528,-0.0007
2.4556,0.0053
2.4583,0.0085
2.4611,-0.0152
2.4639,-0.0035
2.4667,-0.0063
2.4694,-0.0046
2.4722,0.001
2.475,-0.0127
2.4778,-0.0082
2.4806,0.0055
2.4833,-0.0032
2.4861,-0.0103
2.4889,0.0022
2.4917,0.0057
2.4944,0.0013
2.4972,-0.0077
2.5,-0.007
2.5028,0.0055
2.5056,0.0132
2.5083,0.0116
2.5111,0.0195
2.5139,0.0369
2.5167,0.0656
2.5194,0.031
2.5222,0.0507
2.525,0.0594
2.5278,0.0737
2.5306,0.068
2.5333,0.0674
2.5361,0.0806
2.5389,0.0647
2.5417,0.1
2.5444,0.0963
2.5472,0.1046
2.55,0.1117
2.5528,0.1046
2.5556,0.1159
2.5583,0.1219
2.5611,0.114
2.5639,0.1228
2.5667,0.1275
2.5694,0.1227
2.5722,0.1137
2.575,0.1439
2.5778,0.1264
2.5806,0.1472
2.5833,0.1268
2.5861,0.1243
2.5889,0.1445
2.5917,0.1616
2.5944,0.1357
2.5972,0.1264
2.6,0.1454
2.6028,0.1566
2.6056,0.1578
2.6083,0.1485
2.6111,0.1535
2.6139,0.1359
2.6167,0.1335
2.6194,0.1419
2.6222,0.1474
2.625,0.1362
2.6278,0.1296
2.6306,0.1285
2.6333,0.1274
2.6361,0.1336
2.6389,0.1293
2.6417,0.1284
2.6444,0.1297
2.6472,0.1136
2.65,0.1156
2.6528,0.0949
2.6556,0.1145
2.6583,0.1176
2.6611,0.0867
2.6639,0.0729
2.6667,0.0946
2.6694,0.0606
2.6722,0.0514
2.675,0.0642
2.6778,0.0617
2.6806,0.0648
2.6833,0.0539
2.6861,0.0292
2.6889,0.0367
2.6917,0.0244
2.6944,0.0133
2.6972,0.0
2.7,-0.0026
2.7028,0.0263
2.7056,-0.0044
2.7083,0.0098
2.7111,0.0078
2.7139,-0.0023
2.7167,0.0053
2.7194,0.002
2.7222,-0.0143
2.725,-0.0
2.7278,-0.0067
2.7306,0.0086
2.7333,0.0037
2.7361,0.0064
2.7389,0.0252
2.7417,0.006
2.7444,-0.0049
2.7472,-0.0059
2.75,-0.0202
2.7528,0.0093
2.7556,-0.0045
2.7583,0.0098
2.7611,-0.004
2.7639,0.0012
2.7667,0.0034
2.7694,-0.0068
2.7722,0.0129
2.775,0.0037
2.7778,-0.0039
2.7806,-0.0006
2.7833,0.0065
2.7861,-0.0061
2.7889,0.0009
2.7917,0.0047
2.7944,-0.0048
2.7972,0.032
2.8,0.0024
2.8028,-0.0103
2.8056,0.0149
2.8083,-0.0076
2.8111,-0.0002
2.8139,-0.0178
2.8167,0.0167
2.8194,0.0038
2.8222,0.0081
2.825,-0.0023
2.8278,0.0192
2.8306,0.0049
2.8333,-0.0013
2.8361,0.0036
2.8389,-0.0055
2.8417,-0.0128
2.8444,-0.0001
2.8472,0.0032
2.85,-0.0127
2.8528,-0.0177
2.8556,-0.0079
2.8583,-0.0088
2.8611,-0.001
2.8639,-0.0048
2.8667,-0.0001
2.8694,0.0038
2.8722,-0.0113
2.875,0.0044
2.8778,-0.0016
2.8806,-0.007
2.8833,0.0009
2.8861,-0.0093
2.8889,-0.0071
2.8917,0.0047
2.8944,0.0054
2.8972,0.0099
2.9,-0.0123
2.9028,-0.0069
2.9056,-0.0049
2.9083,-0.0009
2.9111,-0.0065
2.9139,0.0236
2.9167,-0.0011
2.9194,0.0004
2.9222,-0.0175
2.925,-0.0023
2.9278,-0.0045
2.9306,-0.005
2.9333,0.0068
2.9361,-0.0124
2.9389,0.0042
2.9417,-0.002
2.9444,0.0111
2.9472,0.0009
2.95,-0.0096
2.9528,0.0017
2.9556,-0.0032
2.9583,-0.008
2.9611,-0.0115
2.9639,-0.0015
2.9667,-0.0016
2.9694,0.0078
2.9722,-0.0052
2.975,0.0174
2.9778,-0.0005
2.9806,0.0102
2.9833,-0.0088
2.9861,0.0023
2.9889,0.0166
2.9917,-0.0017
2.9944,-0.0135
2.9972,-0.0145
3.0,0.0008
3.0028,0.0023
3.0056,-0.0041
3.0083,-0.0274
3.0111,-0.007
3.0139,0.0094
3.0167,-0.0013
3.0194,-0.0012
3.0222,0.0008
3.025,-0.0071
3.0278,0.0036
3.0306,-0.0027
3.0333,0.012
3.0361,0.0017
3.0389,-0.0133
3.0417,0.0073
3.0444,0.0127
3.0472,-0.0018
3.05,-0.0016
3.0528,-0.0038
3.0556,0.0052
3.0583,0.0078
3.0611,-0.0013
3.0639,0.0114
3.0667,-0.0137
3.0694,-0.0035
3.0722,0.0212
3.075,0.0026
3.0778,0.0009
3.0806,-0.0109
3.0833,0.0016
3.0861,-0.0109
3.0889,-0.026
3.0917,0.0016
3.0944,-0.0119
3.0972,0.0075
3.1,0.0201
3.1028,0.0076
3.1056,0.0094
3.1083,0.0231
3.1111,0.0023
3.1139,0.0281
3.1167,0.0304
3.1194,0.0228
3.1222,0.0511
3.125,0.0378
3.1278,0.0512
3.1306,0.0547
3.1333,0.0861
3.1361,0.0502
3.1389,0.0445
3.1417,0.0792
3.1444,0.0525
3.1472,0.0525
3.15,0.0707
3.1528,0.0872
3.1556,0.0779
3.1583,0.0953
3.1611,0.0889
3.1639,0.0787
3.1667,0.0879
3.1694,0.0898
3.1722,0.0875
3.175,0.081
3.1778,0.0797
3.1806,0.0788
3.1833,0.073
3.1861,0.0792
3.1889,0.0588
3.1917,0.078
3.1944,0.0592
3.1972,0.0671
3.2,0.0592
3.2028,0.0551
3.2056,0.0569
3.2083,0.0552
3.2111,0.0508
3.2139,0.0679
3.2167,0.0362
3.2194,0.0458
3.2222,0.0379
3.225,0.0389
3.2278,0.0257
3.2306,0.0115
3.2333,0.0168
3.2361,0.0025
3.2389,0.019
3.2417,-0.0016
3.2444,-0.0054
3.2472,-0.0059
3.25,0.0117
3.2528,-0.0021
3.2556,-0.0075
3.2583,-0.0099
3.2611,0.0114
3.2639,-0.0124
3.2667,-0.0158
3.2694,-0.0082
3.2722,0.0039
3.275,0.0131
3.2778,-0.0019
3.2806,0.0073
3.2833,0.0048
3.2861,0.0147
3.2889,0.0089
3.2917,0.0007
3.2944,-0.0016
3.2972,0.0006
3.3,0.002
3.3028,-0.0042
3.3056,0.0129
3.3083,0.0086
3.3111,-0.0218
3.3139,-0.0289
3.3167,-0.0518
3.3194,-0.028
3.3222,-0.0383
3.325,-0.0086
3.3278,-0.0275
3.3306,0.0658
3.3333,0.1694
3.3361,0.2586
3.3389,0.3567
3.3417,0.4515
3.3444,0.5366
3.3472,0.6233
3.35,0.6756
3.3528,0.7273
3.3556,0.7826
3.3583,0.7967
3.3611,0.7968
3.3639,0.7932
3.3667,0.7591
3.3694,0.7348
3.3722,0.6949
3.375,0.6071
3.3778,0.5674
3.3806,0.4769
3.3833,0.3647
3.3861,0.2718
3.3889,0.176
3.3917,0.0423
3.3944,-0.017
3.3972,-0.0377
3.4,-0.0628
3.4028,-0.0558
3.4056,-0.1067
3.4083,-0.1189
3.4111,-0.1064
3.4139,-0.1094
3.4167,-0.1173
3.4194,-0.1218
3.4222,-0.1035
3.425,-0.0889
3.4278,-0.0722
3.4306,-0.0405
3.4333,-0.023
3.4361,0.0086
3.4389,0.0023
3.4417,-0.0048
3.4444,0.0031
3.4472,0.0135
3.45,-0.0128
3.4528,0.0076
3.4556,-0.0039
3.4583,-0.0111
3.4611,0.0163
3.4639,-0.0075
3.4667,-0.0005
3.4694,0.0137
3.4722,0.0236
3.475,-0.0061
3.4778,0.0021
3.4806,0.0098
3.4833,-0.0117
3.4861,-0.008
3.4889,0.0163
3.4917,-0.0095
3.4944,0.0021
3.4972,0.0082
3.5,-0.0074
3.5028,-0.0034
3.5056,-0.0113
3.5083,0.0044
3.5111,-0.0192
3.5139,0.0027
3.5167,0.0049
3.5194,-0.001
3.5222,-0.0075
3.525,-0.0063
3.5278,0.0033
3.5306,-0.0007
3.5333,0.0035
3.5361,0.016
3.5389,0.0055
3.5417,0.0003
3.5444,0.0091
3.5472,0.0206
3.55,0.0232
3.5528,0.0297
3.5556,0.0325
3.5583,0.0508
3.5611,0.0391
3.5639,0.0605
3.5667,0.0465
3.5694,0.0592
3.5722,0.0432
3.575,0.0749
3.5778,0.0684
3.5806,0.0859
3.5833,0.0853
3.5861,0.0813
3.5889,0.0711
3.5917,0.1101
3.5944,0.1025
3.5972,0.1151
3.6,0.1039
3.6028,0.0938
3.6056,0.134
3.6083,0.1463
3.6111,0.1367
3.6139,0.1325
3.6167,0.1386
3.6194,0.134
3.6222,0.1394
3.625,0.1376
3.6278,0.1216
3.6306,0.1389
3.6333,0.138
3.6361,0.1467
3.6389,0.1394
3.6417,0.1405
3.6444,0.1572
3.6472,0.1463
3.65,0.1545
3.6528,0.1574
3.6556,0.1539
3.6583,0.166
3.6611,0.1357
3.6639,0.1435
3.6667,0.1439
3.6694,0.1429
3.6722,0.1429
3.675,0.1554
3.6778,0.1433
3.6806,0.1226
3.6833,0.1236
3.6861,0.1228
3.6889,0.1193
3.6917,0.1136
3.6944,0.112
3.6972,0.1193
3.7,0.1069
3.7028,0.0871
3.7056,0.1085
3.7083,0.0731
3.7111,0.0931
3.7139,0.1018
3.7167,0.088
3.7194,0.0879
3.7222,0.074
3.725,0.0578
3.7278,0.0702
3.7306,0.0551
3.7333,0.0478
3.7361,0.0489
3.7389,0.0511
3.7417,0.0409
3.7444,0.0128
3.7472,0.0154
3.75,0.0363
3.7528,0.0081
3.7556,-0.0001
3.7583,-0.0204
3.7611,-0.0174
3.7639,-0.0032
3.7667,-0.007
3.7694,-0.0111
3.7722,-0.0176
3.775,0.0022
3.7778,-0.0048
3.7806,0.0074
3.7833,0.0026
3.7861,0.0014
3.7889,-0.0006
3.7917,0.0004
3.7944,0.0169
3.7972,0.0057
3.8,0.0096
3.8028,0.0054
3.8056,-0.0061
3.8083,0.0084
3.8111,-0.0104
3.8139,-0.0037
3.8167,0.0022
3.8194,-0.022
3.8222,-0.006
3.825,-0.0069
3.8278,-0.0099
3.8306,-0.0056
3.8333,-0.0018
3.8361,-0.001
3.8389,-0.0002
3.8417,-0.0101
3.8444,-0.0124
3.8472,-0.0009
3.85,-0.0163
3.8528,-0.0077
3.8556,-0.0172
3.8583,-0.0114
3.8611,0.0008
3.8639,0.0123
3.8667,-0.0131
3.8694,0.0002
3.8722,0.0113
3.875,-0.0006
3.8778,0.0068
3.8806,-0.0049
3.8833,0.0001
3.8861,-0.0138
3.8889,0.0011
3.8917,0.0128
3.8944,0.0159
3.8972,0.004
3.9,-0.0061
3.9028,0.0171
3.9056,-0.0015
3.9083,-0.0154
3.9111,-0.002
3.9139,-0.0028
3.9167,0.0028
3.9194,-0.0087
3.9222,-0.0132
3.925,0.0198
3.9278,-0.0084
3.9306,0.0024
3.9333,-0.0108
3.9361,0.0094
3.9389,0.0036
3.9417,0.0123
3.9444,-0.0011
3.9472,0.0109
3.95,-0.0031
3.9528,0.0038
3.9556,0.0127
3.9583,0.0158
3.9611,0.0095
3.9639,-0.0097
3.9667,0.0005
3.9694,0.0128
3.9722,-0.0008
3.975,-0.0012
3.9778,-0.0068
3.9806,-0.0197
3.9833,0.0067
3.9861,0.0034
3.9889,0.0036
3.9917,0.0163
3.9944,-0.0065
3.9972,-0.0117
4.0,0.0063
4.0028,-0.0136
4.0056,-0.0059
4.0083,-0.0014
4.0111,0.0058
4.0139,-0.0038
4.0167,-0.0051
4.0194,0.0101
4.0222,-0.0039
4.025,-0.0012
4.0278,-0.004
4.0306,-0.0027
4.0333,-0.0081
4.0361,0.0029
4.0389,-0.0046
4.0417,-0.0201
4.0444,0.0042
4.0472,-0.0112
4.05,0.0033
4.0528,0.0028
4.0556,-0.0151
4.0583,-0.0086
4.0611,0.001
4.0639,-0.0174
4.0667,0.0084
4.0694,0.0003
4.0722,-0.0106
4.075,-0.0131
4.0778,0.0079
4.0806,0.014
4.0833,-0.0119
4.0861,0.0009
4.0889,-0.0157
4.0917,-0.0205
4.0944,0.0141
4.0972,0.0175
4.1,-0.0203
4.1028,-0.0056
4.1056,-0.0048
4.1083,0.0051
4.1111,0.0017
4.1139,0.0075
4.1167,-0.0044
4.1194,0.0079
4.1222,0.0011
4.125,0.0029
4.1278,0.0005
4.1306,-0.0142
4.1333,0.0052
4.1361,0.0067
4.1389,0.0087
4.1417,0.0216
4.1444,-0.0065
4.1472,0.0052
4.15,-0.015
4.1528,0.0028
4.1556,0.0041
4.1583,0.0037
4.1611,-0.001
4.1639,0.009
4.1667,0.0056
4.1694,0.009
4.1722,0.016
4.175,0.012
4.1778,0.0422
4.1806,0.0334
4.1833,0.0462
4.1861,0.0495
4.1889,0.0359
4.1917,0.0368
4.1944,0.0427
4.1972,0.0529
4.2,0.0729
4.2028,0.0598
4.2056,0.066
4.2083,0.0683
4.2111,0.0636
4.2139,0.048
4.2167,0.0662
4.2194,0.0727
4.2222,0.0805
4.225,0.0769
4.2278,0.082
4.2306,0.0869
4.2333,0.0764
4.2361,0.0822
4.2389,0.0974
4.2417,0.0728
4.2444,0.0781
4.2472,0.066
4.25,0.0685
4.2528,0.0703
4.2556,0.0885
4.2583,0.0574
4.2611,0.0696
4.2639,0.0668
4.2667,0.0596
4.2694,0.0611
4.2722,0.0546
4.275,0.0546
4.2778,0.0416
4.2806,0.0469
4.2833,0.0458
4.2861,0.0417
4.2889,0.0325
4.2917,0.0242
4.2944,0.0167
4.2972,0.0339
4.3,0.0101
4.3028,0.032
4.3056,0.0142
4.3083,-0.0055
4.3111,-0.0043
4.3139,-0.0063
4.3167,0.0162
4.3194,0.0041
4.3222,-0.0041
4.325,0.0179
4.3278,0.0249
4.3306,-0.0257
4.3333,0.0036
4.3361,-0.0047
4.3389,-0.001
4.3417,-0.0137
4.3444,0.0023
4.3472,-0.0138
4.35,0.0111
4.3528,-0.0111
4.3556,0.0047
4.3583,0.0104
4.3611,0.0079
4.3639,0.005
4.3667,0.006
4.3694,-0.0104
4.3722,0.007
4.375,-0.0244
4.3778,-0.0211
4.3806,-0.0456
4.3833,-0.04
4.3861,-0.025
4.3889,-0.0271
4.3917,-0.0191
4.3944,-0.0011
4.3972,0.1036
4.4,0.1915
4.4028,0.3226
4.4056,0.4071
4.4083,0.4851
4.4111,0.5828
4.4139,0.6613
4.4167,0.7018
4.4194,0.761
4.4222,0.7953
4.425,0.8166
4.4278,0.7704
4.4306,0.7794
4.4333,0.755
4.4361,0.7091
4.4389,0.646
4.4417,0.5825
4.4444,0.5015
4.4472,0.4029
4.45,0.2964
4.4528,0.1947
4.4556,0.1177
4.4583,0.0063
4.4611,-0.0075
4.4639,-0.0591
4.4667,-0.0736
4.4694,-0.0702
4.4722,-0.0874
4.475,-0.1062
4.4778,-0.1363
4.4806,-0.1312
4.4833,-0.112
4.4861,-0.0959
4.4889,-0.0784
4.4917,-0.0792
4.4944,-0.0417
4.4972,-0.0426
4.5,0.0009
4.5028,0.0025
4.5056,0.0085
4.5083,0.0069
4.5111,0.0088
4.5139,0.0122
4.5167,0.0153
4.5194,0.0094
4.5222,0.0129
4.525,-0.0159
4.5278,0.0048
4.5306,-0.0275
4.5333,-0.0087
4.5361,-0.0103
4.5389,-0.0014
4.5417,0.0012
4.5444,0.0019
4.5472,-0.0084
4.55,0.0039
4.5528,-0.0079
4.5556,-0.019
4.5583,-0.0097
4.5611,0.0215
4.5639,0.0015
4.5667,-0.0099
4.5694,0.0048
4.5722,-0.0
4.575,0.0075
4.5778,0.0009
4.5806,-0.0176
4.5833,0.0117
4.5861,0.0072
4.5889,0.0081
4.5917,0.0064
4.5944,-0.004
4.5972,-0.008
4.6,-0.0046
4.6028,-0.004
4.6056,0.0115
4.6083,-0.0106
4.6111,0.0184
4.6139,0.0077
4.6167,0.0203
4.6194,0.0574
4.6222,0.0355
4.625,0.0477
4.6278,0.0535
4.6306,0.0513
4.6333,0.0458
4.6361,0.0407
4.6389,0.0592
4.6417,0.0841
4.6444,0.0697
4.6472,0.0809
4.65,0.0925
4.6528,0.0803
4.6556,0.1129
4.6583,0.1026
4.6611,0.1039
4.6639,0.1113
4.6667,0.1174
4.6694,0.1206
4.6722,0.1318
4.675,0.1335
4.6778,0.1318
4.6806,0.1337
4.6833,0.1209
4.6861,0.1335
4.6889,0.1278
4.6917,0.1463
4.6944,0.1517
4.6972,0.1733
4.7,0.1445
4.7028,0.1507
4.7056,0.1593
4.7083,0.1658
4.7111,0.1402
4.7139,0.1383
4.7167,0.155
4.7194,0.1324
4.7222,0.1562
4.725,0.1411
4.7278,0.1332
4.7306,0.1296
4.7333,0.1476
4.7361,0.143
4.7389,0.1307
4.7417,0.1535
4.7444,0.1505
4.7472,0.14
4.75,0.1274
4.7528,0.1257
4.7556,0.1344
4.7583,0.1184
4.7611,0.0995
4.7639,0.1022
4.7667,0.1074
4.7694,0.0997
4.7722,0.079
4.775,0.0863
4.7778,0.0868
4.7806,0.1052
4.7833,0.0694
4.7861,0.0651
4.7889,0.0487
4.7917,0.0604
4.7944,0.0415
4.7972,0.0431
4.8,0.029
4.8028,0.0445
4.8056,0.0279
4.8083,0.0118
4.8111,0.0082
4.8139,0.0031
4.8167,0.0074
4.8194,-0.0005
4.8222,-0.0055
4.825,0.0115
4.8278,0.0028
4.8306,0.0094
4.8333,-0.0221
4.8361,-0.0008
4.8389,0.0107
4.8417,0.0019
4.8444,0.0216
4.8472,0.0014
4.85,0.0015
4.8528,0.004
4.8556,0.0011
4.8583,0.0049
4.8611,0.0006
4.8639,-0.0081
4.8667,0.0082
4.8694,0.0109
4.8722,0.0193
4.875,0.0198
4.8778,-0.0132
4.8806,-0.0071
4.8833,0.0133
4.8861,0.0134
4.8889,-0.0011
4.8917,-0.0038
4.8944,0.0056
4.8972,-0.0107
4.9,0.0037
4.9028,-0.0148
4.9056,0.0052
4.9083,-0.0
4.9111,-0.0173
4.9139,-0.0023
4.9167,-0.0022
4.9194,0.0186
4.9222,-0.0046
4.925,-0.0045
4.9278,0.0103
4.9306,-0.0028
4.9333,-0.0139
4.9361,-0.0062
4.9389,0.006
4.9417,-0.0047
4.9444,0.0118
4.9472,0.0106
4.95,0.0136
4.9528,-0.0182
4.9556,0.0014
4.9583,-0.0015
4.9611,-0.0079
4.9639,0.0142
4.9667,-0.0107
4.9694,-0.0032
4.9722,0.0165
4.975,-0.0022
4.9778,0.0024
4.9806,-0.0037
4.9833,-0.0054
4.9861,0.0014
4.9889,0.0023
4.9917,0.0009
4.9944,-0.0085
4.9972,0.0066
5.0,0.0146
5.0028,0.0089
5.0056,0.0008
5.0083,-0.0001
5.0111,-0.0048
5.0139,-0.0008
5.0167,0.0072
5.0194,-0.0094
5.0222,0.0213
5.025,0.0014
5.0278,0.0079
5.0306,0.0095
5.0333,-0.0026
5.0361,0.0002
5.0389,0.002
5.0417,-0.0031
5.0444,-0.0044
5.0472,0.0115
5.05,-0.0034
5.0528,-0.0136
5.0556,-0.0031
5.0583,0.0052
5.0611,-0.0007
5.0639,-0.005
5.0667,0.002
5.0694,-0.0222
5.0722,0.0037
5.075,-0.0105
5.0778,0.0041
5.0806,0.001
5.0833,0.0084
5.0861,-0.0049
5.0889,0.0098
5.0917,0.0009
5.0944,0.0018
5.0972,0.0041
5.1,-0.0082
5.1028,0.0038
5.1056,0.007
5.1083,-0.0185
5.1111,0.0019
5.1139,0.0
5.1167,0.0068
5.1194,0.0043
5.1222,-0.0174
5.125,-0.0
5.1278,0.0048
5.1306,0.0128
5.1333,-0.0109
5.1361,0.0018
5.1389,0.0104
5.1417,-0.0038
5.1444,-0.023
5.1472,0.0146
5.15,0.01
5.1528,0.0067
5.1556,0.0093
5.1583,-0.0064
5.1611,-0.0098
5.1639,-0.0045
5.1667,-0.0114
5.1694,-0.0133
5.1722,0.0101
5.175,-0.0154
5.1778,0.0142
5.1806,-0.0039
5.1833,0.021
5.1861,0.008
5.1889,-0.0024
5.1917,-0.0055
5.1944,0.0126
5.1972,-0.0016
5.2,-0.0117
5.2028,0.0133
5.2056,0.003
5.2083,-0.0091
5.2111,-0.016
5.2139,0.0003
5.2167,0.0009
5.2194,-0.012
5.2222,-0.0002
5.225,-0.0007
5.2278,-0.0019
5.2306,0.002
5.2333,0.0064
5.2361,0.0039
5.2389,0.026
5.2417,0.0197
5.2444,0.0358
5.2472,0.0504
5.25,0.0364
5.2528,0.0375
5.2556,0.0468
5.2583,0.05
5.2611,0.0675
5.2639,0.0668
5.2667,0.0495
5.2694,0.0452
5.2722,0.0659
5.275,0.0547
5.2778,0.071
5.2806,0.0551
5.2833,0.0853
5.2861,0.0714
5.2889,0.0762
5.2917,0.0908
5.2944,0.0842
5.2972,0.086
5.3,0.1037
5.3028,0.0592
5.3056,0.0981
5.3083,0.0564
5.3111,0.074
5.3139,0.0532
5.3167,0.0834
5.3194,0.0741
5.3222,0.0884
5.325,0.0701
5.3278,0.0748
5.3306,0.0738
5.3333,0.0738
5.3361,0.0743
5.3389,0.0603
5.3417,0.0694
5.3444,0.0443
5.3472,0.0441
5.35,0.0791
5.3528,0.0557
5.3556,0.0474
5.3583,0.0491
5.3611,0.034
5.3639,0.0329
5.3667,0.0404
5.3694,0.0275
5.3722,0.0187
5.375,0.0195
5.3778,0.0101
5.3806,0.0134
5.3833,-0.0113
5.3861,0.0105
5.3889,-0.0078
5.3917,0.0007
5.3944,-0.0123
5.3972,0.0136
5.4,0.017
5.4028,0.0171
5.4056,-0.0048
5.4083,-0.0021
5.4111,-0.0037
5.4139,0.0064
5.4167,0.0081
5.4194,0.0002
5.4222,0.0149
5.425,0.0165
5.4278,-0.0027
5.4306,0.0019
5.4333,0.012
5.4361,0.0001
5.4389,0.0032
5.4417,0.0043
5.4444,-0.0098
5.4472,0.0144
5.45,-0.0018
5.4528,-0.001
5.4556,-0.0194
5.4583,-0.0295
5.4611,-0.0413
5.4639,-0.0407
5.4667,-0.0387
5.4694,-0.0316
5.4722,-0.0254
5.475,-0.0059
5.4778,0.076
5.4806,0.1765
5.4833,0.2754
5.4861,0.361
5.4889,0.4425
5.4917,0.5348
5.4944,0.5955
5.4972,0.6676
5.5,0.7281
5.5028,0.7543
5.5056,0.7793
5.5083,0.7937
5.5111,0.794
5.5139,0.7878
5.5167,0.757
5.5194,0.7237
5.5222,0.6724
5.525,0.6069
5.5278,0.5557
5.5306,0.4683
5.5333,0.3799
5.5361,0.2796
5.5389,0.1605
5.5417,0.096
5.5444,0.0117
5.5472,-0.0241
5.55,-0.061
5.5528,-0.0655
5.5556,-0.0807
5.5583,-0.1017
5.5611,-0.1226
5.5639,-0.1145
5.5667,-0.1215
5.5694,-0.1016
5.5722,-0.1072
5.575,-0.0963
5.5778,-0.0811
5.5806,-0.0732
5.5833,-0.0512
5.5861,-0.0372
5.5889,-0.0063
5.5917,0.0014
5.5944,0.0197
5.5972,-0.0041
5.6,0.0032
5.6028,-0.0273
5.6056,-0.0156
5.6083,-0.006
5.6111,-0.0187
5.6139,-0.0086
5.6167,-0.0116
5.6194,0.0047
5.6222,0.0019
5.625,-0.0012
5.6278,-0.0177
5.6306,-0.0067
5.6333,-0.0116
5.6361,-0.0117
5.6389,0.0276
5.6417,-0.0148
5.6444,-0.0033
5.6472,-0.0098
5.65,-0.0057
5.6528,-0.0041
5.6556,0.0055
5.6583,-0.0018
5.6611,0.0028
5.6639,-0.0049
5.6667,0.0146
5.6694,0.0096
5.6722,0.0011
5.675,0.0073
5.6778,-0.0209
5.6806,-0.0021
5.6833,-0.0002
5.6861,-0.0143
5.6889,-0.0079
5.6917,0.0039
5.6944,-0.0051
5.6972,0.0172
5.7,0.0082
5.7028,0.0106
5.7056,-0.0009
5.7083,0.0078
5.7111,0.0225
5.7139,0.0194
5.7167,0.021
5.7194,0.0478
5.7222,0.0368
5.725,0.0569
5.7278,0.0373
5.7306,0.0579
5.7333,0.0767
5.7361,0.0722
5.7389,0.0739
5.7417,0.0723
5.7444,0.0707
5.7472,0.0713
5.75,0.076
5.7528,0.0852
5.7556,0.0895
5.7583,0.1063
5.7611,0.0861
5.7639,0.1279
5.7667,0.123
5.7694,0.1261
5.7722,0.117
5.775,0.1251
5.7778,0.1287
5.7806,0.1342
5.7833,0.1349
5.7861,0.1432
5.7889,0.1287
5.7917,0.1546
5.7944,0.1435
5.7972,0.151
5.8,0.1543
5.8028,0.159
5.8056,0.1296
5.8083,0.1562
5.8111,0.1435
5.8139,0.1457
5.8167,0.1497
5.8194,0.1391
5.8222,0.1558
5.825,0.1453
5.8278,0.1528
5.8306,0.1505
5.8333,0.1468
5.8361,0.1505
5.8389,0.1374
5.8417,0.1357
5.8444,0.1492
5.8472,0.1267
5.85,0.1459
5.8528,0.1462
5.8556,0.1236
5.8583,0.118
5.8611,0.1242
5.8639,0.1204
5.8667,0.0911
5.8694,0.1165
5.8722,0.1022
5.875,0.0907
5.8778,0.1251
5.8806,0.0892
5.8833,0.0909
5.8861,0.0781
5.8889,0.0985
5.8917,0.056
5.8944,0.075
5.8972,0.0745
5.9,0.0543
5.9028,0.0689
5.9056,0.06
5.9083,0.0454
5.9111,0.0368
5.9139,0.0404
5.9167,0.0448
5.9194,0.0259
5.9222,0.0009
5.925,0.0185
5.9278,0.0162
5.9306,-0.0009
5.9333,-0.008
5.9361,-0.0128
5.9389,-0.0159
5.9417,0.004
5.9444,0.0123
5.9472,-0.002
5.95,0.0122
5.9528,0.0006
5.9556,-0.0083
5.9583,0.0072
5.9611,0.0288
5.9639,0.0097
5.9667,-0.0024
5.9694,-0.0108
5.9722,-0.0096
5.975,0.0086
5.9778,-0.0002
5.9806,0.0057
5.9833,0.005
5.9861,0.0002
5.9889,-0.0216
5.9917,0.0069
5.9944,0.0063
5.9972,0.001
6.0,0.0105
6.0028,-0.003
6.0056,0.0114
6.0083,0.0106
6.0111,0.0228
6.0139,0.0059
6.0167,-0.0008
6.0194,-0.0118
6.0222,0.0051
6.025,0.0047
6.0278,0.0116
6.0306,0.0024
6.0333,0.0007
6.0361,-0.0099
6.0389,-0.0034
6.0417,0.0037
6.0444,-0.0061
6.0472,0.007
6.05,-0.006
6.0528,0.0023
6.0556,0.0133
6.0583,-0.0165
6.0611,0.0067
6.0639,0.0009
6.0667,-0.006
6.0694,-0.0111
6.0722,0.0024
6.075,-0.0021
6.0778,0.0188
6.0806,-0.0115
6.0833,-0.0049
6.0861,0.0013
6.0889,0.0056
6.0917,-0.0053
6.0944,-0.0111
6.0972,-0.0159
6.1,-0.0109
6.1028,-0.0025
6.1056,0.0145
6.1083,0.0089
6.1111,-0.0103
6.1139,0.0014
6.1167,-0.0007
6.1194,0.0101
6.1222,0.0074
6.125,0.0066
6.1278,-0.0145
6.1306,-0.0106
6.1333,0.0157
6.1361,-0.0117
6.1389,-0.0002
6.1417,0.0049
6.1444,0.0119
6.1472,-0.0091
6.15,-0.0135
6.1528,-0.0227
6.1556,0.0034
6.1583,-0.0072
6.1611,-0.0038
6.1639,-0.0143
6.1667,-0.0015
6.1694,0.005
6.1722,-0.0095
6.175,0.0198
6.1778,-0.0149
6.1806,0.0026
6.1833,0.0149
6.1861,0.0001
6.1889,0.0123
6.1917,-0.0061
6.1944,-0.022
6.1972,0.0097
6.2,-0.0094
6.2028,0.0154
6.2056,-0.0075
6.2083,-0.0107
6.2111,0.0013
6.2139,0.009
6.2167,-0.0025
6.2194,-0.003
6.2222,-0.0014
6.225,-0.0203
6.2278,-0.0343
6.2306,0.0124
6.2333,0.0043
6.2361,-0.0024
6.2389,0.0037
6.2417,0.0062
6.2444,0.0102
6.2472,-0.0007
6.25,0.003
6.2528,-0.0125
6.2556,-0.008
6.2583,0.003
6.2611,-0.0009
6.2639,-0.0004
6.2667,0.0001
6.2694,0.002
6.2722,0.0147
6.275,-0.006
6.2778,-0.0158
6.2806,0.0174
6.2833,0.0119
6.2861,0.0108
6.2889,0.004
6.2917,0.0014
6.2944,0.0213
6.2972,0.0027
6.3,0.0073
6.3028,0.0091
6.3056,0.0191
6.3083,-0.0053
6.3111,0.0017
6.3139,-0.0006
6.3167,-0.0118
6.3194,0.0164
6.3222,0.0046
6.325,-0.0227
6.3278,0.0066
6.3306,-0.0044
6.3333,-0.0106
6.3361,0.0172
6.3389,0.0001
6.3417,-0.03
6.3444,0.0029
6.3472,-0.0163
6.35,-0.0139
6.3528,0.0009
6.3556,0.0076
6.3583,0.0063
6.3611,0.0075
6.3639,0.0244
6.3667,0.0173
6.3694,0.02
6.3722,0.0314
6.375,0.0348
6.3778,0.0414
6.3806,0.0377
6.3833,0.0496
6.3861,0.062
6.3889,0.0609
6.3917,0.056
6.3944,0.0553
6.3972,0.0751
6.4,0.0796
6.4028,0.0713
6.4056,0.0738
6.4083,0.0822
6.4111,0.059
6.4139,0.0755
6.4167,0.0881
6.4194,0.0784
6.4222,0.0811
6.425,0.0843
6.4278,0.1028
6.4306,0.0793
6.4333,0.0967
6.4361,0.071
6.4389,0.0672
6.4417,0.0692
6.4444,0.0698
6.4472,0.0749
6.45,0.0517
6.4528,0.0431
6.4556,0.0423
6.4583,0.0368
6.4611,0.0468
6.4639,0.0626
6.4667,0.0417
6.4694,0.0449
6.4722,0.0215
6.475,0.0279
6.4778,0.0164
6.4806,0.0131
6.4833,0.0341
6.4861,0.0057
6.4889,0.0056
6.4917,0.0243
6.4944,-0.0002
6.4972,0.0045
6.5,-0.0061
6.5028,0.0233
6.5056,-0.0101
6.5083,0.0065
6.5111,0.0051
6.5139,0.0159
6.5167,0.011
6.5194,0.0279
6.5222,-0.0046
6.525,0.009
6.5278,0.0196
6.5306,0.006
6.5333,0.0034
6.5361,-0.017
6.5389,0.0177
6.5417,-0.0057
6.5444,-0.0029
6.5472,0.0012
6.55,0.0051
6.5528,0.0076
6.5556,0.003
6.5583,-0.0109
6.5611,-0.0221
6.5639,-0.0487
6.5667,-0.0441
6.5694,-0.0505
6.5722,-0.0349
6.575,-0.0116
6.5778,0.0148
6.5806,0.1326
6.5833,0.2429
6.5861,0.3586
6.5889,0.4499
6.5917,0.5394
6.5944,0.6216
6.5972,0.6791
6.6,0.7267
6.6028,0.7664
6.6056,0.7844
6.6083,0.8031
6.6111,0.7853
6.6139,0.7562
6.6167,0.71
6.6194,0.663
6.6222,0.6089
6.625,0.5281
6.6278,0.4174
6.6306,0.3037
6.6333,0.2256
6.6361,0.1145
6.6389,-0.0126
6.6417,-0.0204
6.6444,-0.0531
6.6472,-0.0699
6.65,-0.0882
6.6528,-0.1172
6.6556,-0.1164
6.6583,-0.1239
6.6611,-0.1184
6.6639,-0.1044
6.6667,-0.1213
6.6694,-0.0922
6.6722,-0.0855
6.675,-0.0316
6.6778,-0.0089
6.6806,-0.01
6.6833,0.0154
6.6861,-0.0125
6.6889,-0.0252
6.6917,0.0015
6.6944,-0.0061
6.6972,-0.0148
6.7,0.0002
6.7028,0.0049
6.7056,0.0117
6.7083,-0.0149
6.7111,0.0036
6.7139,-0.0041
6.7167,-0.0212
6.7194,-0.005
6.7222,-0.0051
6.725,-0.0053
6.7278,0.0093
6.7306,0.0011
6.7333,0.0091
6.7361,-0.0074
6.7389,0.0115
6.7417,-0.0018
6.7444,-0.0006
6.7472,-0.005
6.75,0.0083
6.7528,0.0021
6.7556,0.004
6.7583,-0.0014
6.7611,0.0057
6.7639,-0.0058
6.7667,0.011
6.7694,0.0111
6.7722,0.0213
6.775,-0.0072
6.7778,-0.0018
6.7806,0.0175
6.7833,0.0151
6.7861,0.0193
6.7889,0.0175
6.7917,0.0018
6.7944,0.0259
6.7972,0.043
6.8,0.0212
6.8028,0.0618
6.8056,0.07
6.8083,0.0586
6.8111,0.0678
6.8139,0.0832
6.8167,0.0629
6.8194,0.0786
6.8222,0.0805
6.825,0.0957
6.8278,0.0933
6.8306,0.1106
6.8333,0.1129
6.8361,0.1351
6.8389,0.1125
6.8417,0.1278
6.8444,0.1029
6.8472,0.1226
6.85,0.1298
6.8528,0.1329
6.8556,0.1449
6.8583,0.1315
6.8611,0.1396
6.8639,0.1442
6.8667,0.1511
6.8694,0.1313
6.8722,0.1409
6.875,0.1563
6.8778,0.145
6.8806,0.1409
6.8833,0.1417
6.8861,0.1488
6.8889,0.1529
6.8917,0.158
6.8944,0.1515
6.8972,0.1572
6.9,0.1725
6.9028,0.139
6.9056,0.1284
6.9083,0.1458
6.9111,0.1593
6.9139,0.1206
6.9167,0.1126
6.9194,0.1388
6.9222,0.1408
6.925,0.1274
6.9278,0.1166
6.9306,0.1112
6.9333,0.1082
6.9361,0.1196
6.9389,0.1181
6.9417,0.0814
6.9444,0.0876
6.9472,0.0908
6.95,0.0764
6.9528,0.0841
6.9556,0.0535
6.9583,0.0573
6.9611,0.0571
6.9639,0.0464
6.9667,0.0399
6.9694,0.0422
6.9722,0.027
6.975,0.0203
6.9778,0.031
6.9806,0.0108
6.9833,-0.002
6.9861,0.0075
6.9889,0.0063
6.9917,0.0055
6.9944,-0.0033
6.9972,-0.0125
7.0,0.0114
7.0028,-0.0045
7.0056,0.0045
7.0083,-0.0116
7.0111,-0.0039
7.0139,0.0104
7.0167,0.0056
7.0194,0.006
7.0222,0.0154
7.025,0.004
7.0278,0.0027
7.0306,0.0067
7.0333,0.0256
7.0361,-0.0012
7.0389,-0.0019
7.0417,-0.0009
7.0444,-0.0058
7.0472,0.0035
7.05,0.0103
7.0528,-0.0064
7.0556,-0.0025
7.0583,0.0024
7.0611,-0.0133
7.0639,0.016
7.0667,0.0041
7.0694,0.0052
7.0722,0.0008
7.075,0.0068
7.0778,0.0054
7.0806,-0.0104
7.0833,-0.0039
7.0861,0.0014
7.0889,0.0209
7.0917,0.0177
7.0944,0.0047
7.0972,-0.0078
7.1,0.0084
7.1028,-0.0025
7.1056,0.0082
7.1083,-0.0126
7.1111,0.0076
7.1139,0.0075
7.1167,0.005
7.1194,-0.0082
7.1222,0.0093
7.125,0.013
7.1278,0.002
7.1306,0.0058
7.1333,-0.0178
7.1361,-0.0042
7.1389,-0.0186
7.1417,-0.0118
7.1444,-0.0003
7.1472,-0.0069
7.15,-0.005
7.1528,-0.0125
7.1556,0.0042
7.1583,0.003
7.1611,0.0056
7.1639,0.0046
7.1667,-0.0064
7.1694,0.0088
7.1722,0.0032
7.175,-0.0096
7.1778,0.0036
7.1806,-0.0044
7.1833,0.0046
7.1861,-0.018
7.1889,0.0135
7.1917,-0.0222
7.1944,0.0006
7.1972,-0.0034
7.2,-0.0052
7.2028,0.0166
7.2056,-0.0106
7.2083,0.0098
7.2111,-0.0015
7.2139,-0.006
7.2167,0.0064
7.2194,0.0063
7.2222,-0.015
7.225,-0.0065
7.2278,-0.0051
7.2306,-0.0147
7.2333,0.013
7.2361,0.005
7.2389,0.0033
7.2417,-0.0127
7.2444,-0.014
7.2472,-0.012
7.25,-0.0065
7.2528,0.0211
7.2556,-0.0078
7.2583,0.0149
7.2611,-0.0153
7.2639,0.0063
7.2667,-0.0057
7.2694,-0.0021
7.2722,-0.0049
7.275,0.0001
7.2778,0.0056
7.2806,0.0123
7.2833,0.004
7.2861,-0.014
7.2889,-0.0065
7.2917,-0.0075
7.2944,-0.0056
7.2972,0.0043
7.3,0.0005
7.3028,-0.012
7.3056,0.0183
7.3083,0.0036
7.3111,-0.0139
7.3139,0.0033
7.3167,0.0108
7.3194,0.0074
7.3222,0.0047
7.325,-0.0125
7.3278,0.003
7.3306,0.0113
7.3333,-0.0079
7.3361,0.0009
7.3389,0.0008
7.3417,0.0059
7.3444,-0.0073
7.3472,0.0123
7.35,0.0075
7.3528,-0.0012
7.3556,0.0063
7.3583,-0.0016
7.3611,-0.002
7.3639,0.0114
7.3667,0.0011
7.3694,-0.0044
7.3722,-0.0068
7.375,0.0006
7.3778,-0.001
7.3806,-0.0135
7.3833,-0.0149
7.3861,0.0103
7.3889,0.0088
7.3917,0.0232
7.3944,0.0202
7.3972,0.0324
7.4,0.0563
7.4028,0.0454
7.4056,0.0511
7.4083,0.0541
7.4111,0.0491
7.4139,0.0557
7.4167,0.0586
7.4194,0.0581
7.4222,0.0639
7.425,0.0685
7.4278,0.053
7.4306,0.071
7.4333,0.0766
7.4361,0.0715
7.4389,0.0826
7.4417,0.0869
7.4444,0.0696
7.4472,0.0938
7.45,0.0834
7.4528,0.0663
7.4556,0.0666
7.4583,0.0927
7.4611,0.0913
7.4639,0.078
7.4667,0.0987
7.4694,0.0741
7.4722,0.0676
7.475,0.0686
7.4778,0.0822
7.4806,0.0664
7.4833,0.055
7.4861,0.0806
7.4889,0.0779
7.4917,0.0622
7.4944,0.0743
7.4972,0.0484
7.5,0.0518
7.5028,0.0625
7.5056,0.0557
7.5083,0.0293
7.5111,0.0321
7.5139,0.0147
7.5167,0.0295
7.5194,0.0343
7.5222,0.0356
7.525,0.0006
7.5278,0.0277
7.5306,0.0065
7.5333,0.0087
7.5361,0.0097
7.5389,-0.0118
7.5417,-0.0039
7.5444,-0.0068
7.5472,0.0083
7.55,0.0032
7.5528,0.017
7.5556,-0.0193
7.5583,-0.0184
7.5611,0.0064
7.5639,0.004
7.5667,0.0153
7.5694,0.0299
7.5722,0.004
7.575,-0.0034
7.5778,0.0006
7.5806,0.0057
7.5833,-0.0155
7.5861,0.0022
7.5889,0.0117
7.5917,0.0023
7.5944,0.0041
7.5972,-0.0204
7.6,-0.0042
7.6028,-0.0015
7.6056,-0.0171
7.6083,-0.0332
7.6111,-0.0305
7.6139,-0.0395
7.6167,-0.0228
7.6194,-0.0264
7.6222,-0.0086
7.625,0.0705
7.6278,0.1632
7.6306,0.2872
7.6333,0.3655
7.6361,0.4519
7.6389,0.5305
7.6417,0.6164
7.6444,0.6645
7.6472,0.7242
7.65,0.771
7.6528,0.7851
7.6556,0.7981
7.6583,0.784
7.6611,0.7631
7.6639,0.76
7.6667,0.724
7.6694,0.6445
7.6722,0.5929
7.675,0.5039
7.6778,0.3988
7.6806,0.3352
7.6833,0.2274
7.6861,0.126
7.6889,-0.0026
7.6917,-0.0172
7.6944,-0.0331
7.6972,-0.0613
7.7,-0.0825
7.7028,-0.0928
7.7056,-0.1104
7.7083,-0.1175
7.7111,-0.118
7.7139,-0.1238
7.7167,-0.1298
7.7194,-0.1134
7.7222,-0.0789
7.725,-0.0662
7.7278,-0.0435
7.7306,-0.0288
7.7333,-0.0033
7.7361,0.0018
7.7389,-0.0027
7.7417,0.0081
7.7444,-0.0035
7.7472,-0.0042
7.75,-0.0011
7.7528,-0.0113
7.7556,-0.0089
7.7583,-0.0164
7.7611,0.0063
7.7639,0.006
7.7667,-0.0001
7.7694,-0.001
7.7722,0.0037
7.775,0.0093
7.7778,0.0222
7.7806,0.0012
7.7833,0.002
7.7861,0.002
7.7889,0.0196
7.7917,0.0088
7.7944,0.0211
7.7972,0.014
7.8,0.0079
7.8028,-0.0055
7.8056,-0.0088
7.8083,0.0032
7.8111,0.0013
7.8139,0.003
7.8167,0.0092
7.8194,0.0018
7.8222,0.0111
7.825,0.0008
7.8278,0.0058
7.8306,-0.0093
7.8333,-0.0085
7.8361,-0.0192
7.8389,-0.0007
7.8417,0.0232
7.8444,-0.0096
7.8472,0.0176
7.85,0.0139
7.8528,0.0129
7.8556,0.0408
7.8583,0.0153
7.8611,0.0126
7.8639,0.0508
7.8667,0.0426
7.8694,0.0302
7.8722,0.0728
7.875,0.0713
7.8778,0.0655
7.8806,0.0835
7.8833,0.0848
7.8861,0.102
7.8889,0.0942
7.8917,0.1001
7.8944,0.0901
7.8972,0.0922
7.9,0.0932
7.9028,0.1156
7.9056,0.1196
7.9083,0.1348
7.9111,0.1325
7.9139,0.1437
7.9167,0.1493
7.9194,0.1199
7.9222,0.1492
7.925,0.1293
7.9278,0.1461
7.9306,0.1477
7.9333,0.1538
7.9361,0.1482
7.9389,0.147
7.9417,0.1487
7.9444,0.1441
7.9472,0.1512
7.95,0.138
7.9528,0.1405
7.9556,0.1433
7.9583,0.1625
7.9611,0.1675
7.9639,0.1382
7.9667,0.1464
7.9694,0.1672
7.9722,0.1504
7.975,0.1573
7.9778,0.1559
7.9806,0.1355
7.9833,0.111
7.9861,0.1335
7.9889,0.133
7.9917,0.1234
7.9944,0.123
7.9972,0.1113
8.0,0.1192
8.0028,0.115
8.0056,0.0942
8.0083,0.0999
8.0111,0.0982
8.0139,0.1033
8.0167,0.0954
8.0194,0.0903
8.0222,0.0647
8.025,0.0937
8.0278,0.0691
8.0306,0.0604
8.0333,0.0525
8.0361,0.0565
8.0389,0.0573
8.0417,0.041
8.0444,0.03
8.0472,0.0378
8.05,0.0356
8.0528,0.0225
8.0556,0.0303
8.0583,0.0054
8.0611,0.0094
8.0639,-0.007
8.0667,-0.0073
8.0694,-0.0249
8.0722,-0.0012
8.075,-0.0172
8.0778,-0.0192
8.0806,-0.0046
8.0833,0.0184
8.0861,-0.0163
8.0889,-0.0061
8.0917,0.0031
8.0944,0.0083
8.0972,0.0071
8.1,0.0027
8.1028,0.0072
8.1056,0.0107
8.1083,-0.0117
8.1111,-0.0211
8.1139,-0.0109
8.1167,0.0078
8.1194,-0.0016
8.1222,-0.004
8.125,0.006
8.1278,-0.0057
8.1306,-0.0034
8.1333,0.007
8.1361,0.0116
8.1389,0.0055
8.1417,0.0
8.1444,0.0045
8.1472,-0.0019
8.15,0.0023
8.1528,0.0008
8.1556,-0.0018
8.1583,0.0025
8.1611,-0.0048
8.1639,-0.0051
8.1667,0.0043
8.1694,0.0062
8.1722,0.0085
8.175,0.0134
8.1778,0.0007
8.1806,0.0193
8.1833,-0.0029
8.1861,0.0071
8.1889,0.0093
8.1917,-0.0032
8.1944,0.0112
8.1972,-0.0148
8.2,-0.0032
8.2028,0.0058
8.2056,0.0113
8.2083,-0.0068
8.2111,0.0029
8.2139,-0.0165
8.2167,-0.0146
8.2194,0.0013
8.2222,0.0089
8.225,0.0154
8.2278,0.0004
8.2306,-0.0074
8.2333,-0.0102
8.2361,-0.0016
8.2389,-0.0091
8.2417,-0.0067
8.2444,0.0041
8.2472,-0.0026
8.25,0.0085
8.2528,0.0038
8.2556,0.0014
8.2583,0.016
8.2611,-0.0054
8.2639,0.0023
8.2667,0.0102
8.2694,0.0122
8.2722,-0.005
8.275,-0.0148
8.2778,0.0105
8.2806,0.0082
8.2833,0.0156
8.2861,-0.001
8.2889,-0.005
8.2917,-0.0105
8.2944,-0.0038
8.2972,0.0055
8.3,-0.0095
8.3028,-0.0106
8.3056,0.0001
8.3083,0.0074
8.3111,0.0057
8.3139,0.0102
8.3167,-0.007
8.3194,0.005
8.3222,0.0014
8.325,0.0176
8.3278,-0.0215
8.3306,0.0007
8.3333,-0.0025
8.3361,-0.0032
8.3389,0.0072
8.3417,0.0065
8.3444,0.0054
8.3472,-0.0034
8.35,0.019
8.3528,0.0085
8.3556,0.0038
8.3583,-0.0038
8.3611,-0.0003
8.3639,0.0082
8.3667,-0.0039
8.3694,0.0116
8.3722,-0.0088
8.375,0.0035
8.3778,0.0002
8.3806,-0.0089
8.3833,0.0117
8.3861,0.0094
8.3889,-0.0162
8.3917,0.0035
8.3944,-0.0127
8.3972,0.0051
8.4,-0.0059
8.4028,0.0129
8.4056,-0.0113
8.4083,0.0012
8.4111,-0.0141
8.4139,0.0087
8.4167,-0.0003
8.4194,-0.0139
8.4222,0.0022
8.425,0.0033
8.4278,0.0064
8.4306,-0.0108
8.4333,-0.0045
8.4361,-0.0032
8.4389,-0.0199
8.4417,-0.0011
8.4444,0.0038
8.4472,-0.0008
8.45,-0.0099
8.4528,0.0087
8.4556,0.0037
8.4583,0.0012
8.4611,-0.0014
8.4639,-0.0006
8.4667,0.0065
8.4694,-0.0013
8.4722,-0.0173
8.475,-0.003
8.4778,-0.0128
8.4806,-0.0088
8.4833,-0.0074
8.4861,0.0218
8.4889,0.0139
8.4917,0.0274
8.4944,0.0344
8.4972,0.0253
8.5,0.0451
8.5028,0.0485
8.5056,0.0569
8.5083,0.0496
8.5111,0.0617
8.5139,0.0539
8.5167,0.0516
8.5194,0.0714
8.5222,0.0901
8.525,0.0691
8.5278,0.0779
8.5306,0.063
8.5333,0.0812
8.5361,0.0869
8.5389,0.0705
8.5417,0.0684
8.5444,0.0807
8.5472,0.0794
8.55,0.0841
8.5528,0.0918
8.5556,0.0682
8.5583,0.0757
8.5611,0.0821
8.5639,0.1004
8.5667,0.0706
8.5694,0.0732
8.5722,0.0808
8.575,0.0774
8.5778,0.0627
8.5806,0.0677
8.5833,0.0726
8.5861,0.0469
8.5889,0.067
8.5917,0.0464
8.5944,0.0527
8.5972,0.0316
8.6,0.0341
8.6028,0.0396
8.6056,0.0306
8.6083,0.0332
8.6111,0.0103
8.6139,0.0018
8.6167,-0.0229
8.6194,-0.0139
8.6222,-0.0172
8.625,0.0064
8.6278,-0.0076
8.6306,-0.0122
8.6333,-0.0002
8.6361,-0.0127
8.6389,0.0176
8.6417,0.0065
8.6444,0.0031
8.6472,0.0118
8.65,-0.0189
8.6528,-0.0027
8.6556,0.0045
8.6583,-0.0104
8.6611,0.0088
8.6639,-0.0114
8.6667,-0.0188
8.6694,-0.0107
8.6722,0.0054
8.675,-0.0188
8.6778,0.001
8.6806,-0.0017
8.6833,-0.0032
8.6861,-0.0265
8.6889,-0.04
8.6917,-0.0543
8.6944,-0.0476
8.6972,-0.0365
8.7,-0.0155
8.7028,-0.012
8.7056,0.1093
8.7083,0.2205
8.7111,0.3272
8.7139,0.4417
8.7167,0.5284
8.7194,0.6038
8.7222,0.6786
8.725,0.713
8.7278,0.7597
8.7306,0.7792
8.7333,0.8035
8.7361,0.7979
8.7389,0.7612
8.7417,0.7384
8.7444,0.6949
8.7472,0.5845
8.75,0.5321
8.7528,0.4636
8.7556,0.3539
8.7583,0.2458
8.7611,0.1501
8.7639,0.0243
8.7667,-0.0166
8.7694,-0.0476
8.7722,-0.0544
8.775,-0.0886
8.7778,-0.0934
8.7806,-0.1272
8.7833,-0.1307
8.7861,-0.1375
8.7889,-0.1067
8.7917,-0.0916
8.7944,-0.0958
8.7972,-0.0759
8.8,-0.0566
8.8028,-0.0301
8.8056,-0.0061
8.8083,0.0008
8.8111,0.0067
8.8139,0.003
8.8167,0.0137
8.8194,-0.01
8.8222,0.0116
8.825,0.031
8.8278,-0.003
8.8306,-0.0078
8.8333,0.0129
8.8361,0.0015
8.8389,0.0003
8.8417,-0.0073
8.8444,-0.0102
8.8472,-0.0097
8.85,0.0
8.8528,-0.0153
8.8556,0.0021
8.8583,0.0063
8.8611,0.0031
8.8639,-0.008
8.8667,0.0038
8.8694,-0.0081
8.8722,0.0023
8.875,-0.0101
8.8778,-0.014
8.8806,0.0045
8.8833,-0.0101
8.8861,0.0249
8.8889,-0.0117
8.8917,0.0088
8.8944,0.0071
8.8972,-0.0087
8.9,-0.0098
8.9028,-0.0122
8.9056,0.0244
8.9083,-0.0131
8.9111,-0.0035
8.9139,-0.0003
8.9167,0.0153
8.9194,0.0094
8.9222,0.0389
8.925,0.0568
8.9278,0.0287
8.9306,0.0367
8.9333,0.0523
8.9361,0.0735
8.9389,0.057
8.9417,0.0648
8.9444,0.0882
8.9472,0.0844
8.95,0.0838
8.9528,0.0762
8.9556,0.0943
8.9583,0.1153
8.9611,0.1042
8.9639,0.1076
8.9667,0.1045
8.9694,0.1383
8.9722,0.1138
8.975,0.1347
8.9778,0.1214
8.9806,0.1345
8.9833,0.1384
8.9861,0.1269
8.9889,0.1438
8.9917,0.1324
8.9944,0.1452
8.9972,0.1503
9.0,0.1469
9.0028,0.1443
9.0056,0.1538
9.0083,0.1516
9.0111,0.1596
9.0139,0.156
9.0167,0.1435
9.0194,0.1306
9.0222,0.1604
9.025,0.1387
9.0278,0.1427
9.0306,0.1398
9.0333,0.1587
9.0361,0.1341
9.0389,0.1281
9.0417,0.1383
9.0444,0.1357
9.0472,0.137
9.05,0.1241
9.0528,0.1134
9.0556,0.1155
9.0583,0.1183
9.0611,0.1027
9.0639,0.0879
9.0667,0.107
9.0694,0.0864
9.0722,0.1032
9.075,0.0771
9.0778,0.0848
9.0806,0.0866
9.0833,0.0896
9.0861,0.0689
9.0889,0.0454
9.0917,0.0497
9.0944,0.0396
9.0972,0.0527
9.1,0.0336
9.1028,0.0346
9.1056,0.0347
9.1083,0.009
9.1111,0.0108
9.1139,-0.0108
9.1167,0.0217
9.1194,-0.0068
9.1222,0.0047
9.125,0.0005
9.1278,-0.0023
9.1306,-0.0022
9.1333,-0.0084
9.1361,0.0035
9.1389,0.013
9.1417,0.0142
9.1444,-0.0088
9.1472,0.0022
9.15,0.0106
9.1528,0.0002
9.1556,0.0086
9.1583,0.0196
9.1611,0.0111
9.1639,-0.0071
9.1667,-0.0004
9.1694,0.0157
9.1722,0.0049
9.175,-0.0079
9.1778,0.0017
9.1806,-0.0023
9.1833,0.0042
9.1861,0.0029
9.1889,-0.009
9.1917,0.0102
9.1944,0.0184
9.1972,-0.0099
9.2,-0.0219
9.2028,0.0099
9.2056,0.0108
9.2083,0.0146
9.2111,0.0086
9.2139,-0.0112
9.2167,0.0024
9.2194,0.0003
9.2222,0.0007
9.225,-0.005
9.2278,-0.0051
9.2306,-0.0041
9.2333,0.0073
9.2361,-0.0055
9.2389,-0.0051
9.2417,0.0164
9.2444,0.0248
9.2472,-0.0086
9.25,-0.0114
9.2528,0.0037
9.2556,-0.0233
9.2583,0.0053
9.2611,-0.0147
9.2639,-0.0003
9.2667,0.0159
9.2694,-0.0133
9.2722,0.0058
9.275,-0.0236
9.2778,-0.0037
9.2806,0.0007
9.2833,-0.0118
9.2861,0.0039
9.2889,0.003
9.2917,-0.0176
9.2944,0.0122
9.2972,0.001
9.3,0.0028
9.3028,0.0095
9.3056,-0.006
9.3083,-0.0108
9.3111,0.0017
9.3139,0.0058
9.3167,0.0025
9.3194,-0.0031
9.3222,0.0014
9.325,0.0033
9.3278,0.0007
9.3306,0.005
9.3333,0.0007
9.3361,-0.005
9.3389,-0.0001
9.3417,0.0078
9.3444,0.0078
9.3472,0.0062
9.35,0.0084
9.3528,-0.0026
9.3556,0.0031
9.3583,-0.0101
9.3611,-0.002
9.3639,0.0119
9.3667,0.0036
9.3694,0.003
9.3722,-0.0234
9.375,-0.0083
9.3778,0.0088
9.3806,0.0012
9.3833,0.0068
9.3861,-0.0134
9.3889,0.0067
9.3917,0.0065
9.3944,-0.0033
9.3972,-0.0204
9.4,-0.0129
9.4028,-0.0059
9.4056,-0.0085
9.4083,-0.0051
9.4111,-0.0174
9.4139,0.0091
9.4167,0.0027
9.4194,0.0035
9.4222,-0.0227
9.425,-0.0018
9.4278,0.0037
9.4306,-0.0051
9.4333,0.0032
9.4361,-0.0006
9.4389,0.0107
9.4417,-0.0057
9.4444,-0.005
9.4472,-0.0075
9.45,0.0048
9.4528,0.0032
9.4556,0.0004
9.4583,0.0093
9.4611,0.0177
9.4639,-0.0077
9.4667,0.0142
9.4694,-0.0085
9.4722,-0.0062
9.475,-0.0012
9.4778,-0.0021
9.4806,0.0072
9.4833,-0.0097
9.4861,0.0004
9.4889,0.0036
9.4917,-0.0148
9.4944,0.0094
9.4972,-0.0083
9.5,-0.0074
9.5028,0.0033
9.5056,-0.0006
9.5083,0.0278
9.5111,0.0107
9.5139,0.0461
9.5167,0.0358
9.5194,0.0179
9.5222,0.0458
9.525,0.0362
9.5278,0.0196
9.5306,0.0696
9.5333,0.0292
9.5361,0.0665
9.5389,0.0553
9.5417,0.054
9.5444,0.0505
9.5472,0.0725
9.55,0.0725
9.5528,0.0744
9.5556,0.082
9.5583,0.0826
9.5611,0.0846
9.5639,0.0783
9.5667,0.0855
9.5694,0.0709
9.5722,0.0925
9.575,0.0701
9.5778,0.0913
9.5806,0.0728
9.5833,0.0859
9.5861,0.0737
9.5889,0.0808
9.5917,0.0728
9.5944,0.0667
9.5972,0.066
9.6,0.069
9.6028,0.0516
9.6056,0.0438
9.6083,0.0408
9.6111,0.0488
9.6139,0.0317
9.6167,0.0268
9.6194,0.0335
9.6222,0.0119
9.625,0.0218
9.6278,0.029
9.6306,-0.0008
9.6333,-0.0016
9.6361,-0.0045
9.6389,0.0067
9.6417,-0.0057
9.6444,0.0086
9.6472,0.0041
9.65,0.0041
9.6528,-0.0042
9.6556,0.0012
9.6583,-0.0209
9.6611,0.0021
9.6639,0.0029
9.6667,0.0023
9.6694,0.0095
9.6722,0.0001
9.675,-0.0193
9.6778,0.0048
9.6806,0.0044
9.6833,0.0101
9.6861,-0.0097
9.6889,-0.0213
9.6917,0.0142
9.6944,0.0037
9.6972,-0.018
9.7,-0.0244
9.7028,-0.0193
9.7056,-0.0484
9.7083,-0.0124
9.7111,0.0023
9.7139,0.0241
9.7167,0.1295
9.7194,0.2575
9.7222,0.4016
9.725,0.4709
9.7278,0.5618
9.7306,0.6388
9.7333,0.6964
9.7361,0.7549
9.7389,0.7875
9.7417,0.7983
9.7444,0.7908
9.7472,0.7774
9.75,0.724
9.7528,0.6689
9.7556,0.5939
9.7583,0.5083
9.7611,0.4082
9.7639,0.3108
9.7667,0.1822
9.7694,0.0724
9.7722,-0.0271
9.775,-0.0438
9.7778,-0.062
9.7806,-0.0939
9.7833,-0.0947
9.7861,-0.1234
9.7889,-0.1089
9.7917,-0.123
9.7944,-0.1172
9.7972,-0.1098
9.8,-0.081
9.8028,-0.0671
9.8056,-0.0492
9.8083,-0.0125
9.8111,-0.007
9.8139,-0.0093
9.8167,-0.0066
9.8194,-0.0034
9.8222,-0.005
9.825,0.0015
9.8278,-0.0016
9.8306,0.0044
9.8333,-0.0093
9.8361,-0.0107
9.8389,0.0101
9.8417,-0.0026
9.8444,-0.0063
9.8472,0.0005
9.85,0.0112
9.8528,-0.0182
9.8556,-0.0239
9.8583,-0.0215
9.8611,0.0109
9.8639,-0.0144
9.8667,0.0002
9.8694,0.0018
9.8722,0.0177
9.875,0.006
9.8778,0.0168
9.8806,-0.0148
9.8833,0.0142
9.8861,0.0062
9.8889,0.0086
9.8917,0.0069
9.8944,0.0198
9.8972,0.0119
9.9,0.0014
9.9028,0.0009
9.9056,0.0099
9.9083,0.0115
9.9111,0.0079
9.9139,0.0305
9.9167,0.0308
9.9194,0.0345
9.9222,0.0524
9.925,0.0399
9.9278,0.0464
9.9306,0.0533
9.9333,0.0672
9.9361,0.0829
9.9389,0.0705
9.9417,0.0767
9.9444,0.1016
9.9472,0.0927
9.95,0.101
9.9528,0.0982
9.9556,0.1211
9.9583,0.1114
9.9611,0.129
9.9639,0.1118
9.9667,0.1189
9.9694,0.1183
9.9722,0.146
9.975,0.1306
9.9778,0.1285
9.9806,0.1482
9.9833,0.1356
9.9861,0.1312
9.9889,0.1371
9.9917,0.1581
9.9944,0.1462
9.9972,0.1502
10.0,0.1613
10.0028,0.1503
10.0056,0.1556
10.0083,0.1523
10.0111,0.1483
10.0139,0.1326
10.0167,0.1319
10.0194,0.1418
10.0222,0.1353
10.025,0.1312
10.0278,0.127
10.0306,0.1314
10.0333,0.1422
10.0361,0.1386
10.0389,0.1269
10.0417,0.1317
10.0444,0.1082
10.0472,0.1258
10.05,0.1134
10.0528,0.1202
10.0556,0.0996
10.0583,0.093
10.0611,0.0912
10.0639,0.0746
10.0667,0.0787
10.0694,0.0823
10.0722,0.065
10.075,0.059
10.0778,0.0583
10.0806,0.0414
10.0833,0.0344
10.0861,0.032
10.0889,0.0386
10.0917,-0.0008
10.0944,0.0077
10.0972,0.0066
10.1,0.0086
10.1028,-0.0125
10.1056,0.0139
10.1083,0.0039
10.1111,-0.0069
10.1139,-0.0065
10.1167,-0.0098
10.1194,-0.0012
10.1222,-0.001
10.125,-0.0009
10.1278,-0.0079
10.1306,-0.0026
10.1333,-0.0029
10.1361,0.013
10.1389,-0.0069
10.1417,-0.0145
10.1444,0.007
10.1472,0.0071
10.15,0.0038
10.1528,0.0156
10.1556,-0.0199
10.1583,0.0009
10.1611,0.0093
10.1639,-0.0026
10.1667,0.0001
10.1694,-0.004
10.1722,0.0178
10.175,-0.0011
10.1778,-0.0031
10.1806,0.0098
10.1833,0.0085
10.1861,-0.003
10.1889,-0.0098
10.1917,0.0097
10.1944,-0.0031
10.1972,0.0093
10.2,0.008
10.2028,-0.002
10.2056,0.0068
10.2083,0.0095
10.2111,-0.0016
10.2139,-0.0002
10.2167,0.0148
10.2194,-0.0118
10.2222,0.0046
10.225,0.0112
10.2278,-0.0031
10.2306,0.0047
10.2333,-0.0088
10.2361,0.0007
10.2389,0.0024
10.2417,0.0111
10.2444,0.0023
10.2472,0.0085
10.25,0.0049
10.2528,0.0207
10.2556,0.0116
10.2583,0.0047
10.2611,0.0128
10.2639,-0.0144
10.2667,0.0057
10.2694,0.0042
10.2722,0.0011
10.275,-0.0068
10.2778,-0.0114
10.2806,-0.0052
10.2833,0.0062
10.2861,-0.002
10.2889,-0.0204
10.2917,0.0265
10.2944,-0.0051
10.2972,0.0078
10.3,0.0002
10.3028,0.0223
10.3056,0.0069
10.3083,-0.0123
10.3111,0.0004
10.3139,0.0062
10.3167,-0.0003
10.3194,-0.005
10.3222,-0.0143
10.325,0.0028
10.3278,-0.0192
10.3306,0.0055
10.3333,0.0098
10.3361,0.011
10.3389,0.0003
10.3417,-0.0008
10.3444,0.016
10.3472,0.0059
10.35,-0.0054
10.3528,0.0108
10.3556,0.0042
10.3583,-0.0191
10.3611,0.0156
10.3639,-0.0032
10.3667,0.0068
10.3694,-0.0093
10.3722,0.0053
10.375,-0.0048
10.3778,0.0134
10.3806,0.0235
10.3833,0.0154
10.3861,0.0111
10.3889,-0.007
10.3917,0.015
10.3944,0.0102
10.3972,-0.0005
10.4,-0.0019
10.4028,-0.0248
10.4056,-0.0008
10.4083,0.0046
10.4111,-0.0087
10.4139,0.0032
10.4167,-0.0089
10.4194,-0.0015
10.4222,0.0008
10.425,0.0131
10.4278,0.0029
10.4306,-0.017
10.4333,-0.0086
10.4361,-0.0242
10.4389,0.0068
10.4417,-0.0084
10.4444,0.006
10.4472,-0.0045
10.45,-0.017
10.4528,-0.0061
10.4556,0.0068
10.4583,0.0119
10.4611,0.0007
10.4639,-0.0025
10.4667,0.0168
10.4694,0.0068
10.4722,0.0159
10.475,0.0113
10.4778,0.0253
10.4806,0.0163
10.4833,0.0357
10.4861,0.0292
10.4889,0.0465
10.4917,0.057
10.4944,0.0556
10.4972,0.0629
10.5,0.0538
10.5028,0.0522
10.5056,0.0571
10.5083,0.079
10.5111,0.0753
10.5139,0.0804
10.5167,0.0824
10.5194,0.0469
10.5222,0.0782
10.525,0.0665
10.5278,0.0882
10.5306,0.0847
10.5333,0.0985
10.5361,0.0809
10.5389,0.0913
10.5417,0.074
10.5444,0.085
10.5472,0.0689
10.55,0.0827
10.5528,0.073
10.5556,0.0718
10.5583,0.0605
10.5611,0.0464
10.5639,0.0531
10.5667,0.0698
10.5694,0.0515
10.5722,0.0497
10.575,0.0372
10.5778,0.0277
10.5806,0.0489
10.5833,0.0527
10.5861,0.0529
10.5889,0.0102
10.5917,0.0287
10.5944,-0.0034
10.5972,0.0219
10.6,0.0014
10.6028,0.0043
10.6056,-0.0133
10.6083,0.0025
10.6111,0.0088
10.6139,0.012
10.6167,0.0046
10.6194,0.0017
10.6222,0.0024
10.625,-0.0121
10.6278,-0.0147
10.6306,0.0182
10.6333,-0.0028
10.6361,-0.0093
10.6389,-0.0049
10.6417,0.007
10.6444,-0.0112
10.6472,0.0107
10.65,0.0114
10.6528,-0.0153
10.6556,0.0021
10.6583,0.0111
10.6611,-0.0062
10.6639,-0.0191
10.6667,-0.036
10.6694,-0.0272
10.6722,-0.0298
10.675,-0.0389
10.6778,-0.017
10.6806,-0.0088
10.6833,0.1209
10.6861,0.2374
10.6889,0.3567
10.6917,0.4722
10.6944,0.5349
10.6972,0.6117
10.7,0.7052
10.7028,0.7429
10.7056,0.7742
10.7083,0.8006
10.7111,0.8169
10.7139,0.7746
10.7167,0.7492
10.7194,0.6881
10.7222,0.6209
10.725,0.5593
10.7278,0.4712
10.7306,0.3554
10.7333,0.2492
10.7361,0.1288
10.7389,-0.0039
10.7417,-0.0113
10.7444,-0.0536
10.7472,-0.0883
10.75,-0.0868
10.7528,-0.1003
10.7556,-0.1216
10.7583,-0.1404
10.7611,-0.1027
10.7639,-0.121
10.7667,-0.1028
10.7694,-0.0826
10.7722,-0.0434
10.775,-0.0415
10.7778,-0.0082
10.7806,0.0006
10.7833,0.0073
10.7861,-0.002
10.7889,-0.0031
10.7917,-0.0024
10.7944,0.0062
10.7972,-0.005
10.8,0.0018
10.8028,0.0058
10.8056,-0.0071
10.8083,0.0003
10.8111,-0.0011
10.8139,-0.0052
10.8167,0.0048
10.8194,0.0075
10.8222,-0.0131
10.825,-0.0117
10.8278,0.0021
10.8306,0.0008
10.8333,-0.0047
10.8361,-0.0264
10.8389,0.0081
10.8417,-0.0092
10.8444,-0.0005
10.8472,-0.0022
10.85,-0.0045
10.8528,0.0164
10.8556,0.0064
10.8583,-0.0058
10.8611,0.0204
10.8639,-0.0145
10.8667,-0.001
10.8694,-0.0034
10.8722,-0.0155
10.875,-0.0006
10.8778,-0.0163
10.8806,0.0137
10.8833,0.0208
10.8861,0.0334
10.8889,0.0263
10.8917,0.0563
10.8944,0.0457
10.8972,0.0549
10.9,0.0689
10.9028,0.0478
10.9056,0.0585
10.9083,0.0594
10.9111,0.0955
10.9139,0.0906
10.9167,0.1103
10.9194,0.1096
10.9222,0.108
10.925,0.1009
10.9278,0.0986
10.9306,0.1097
10.9333,0.1042
10.9361,0.1133
10.9389,0.1131
10.9417,0.141
10.9444,0.1368
10.9472,0.1585
10.95,0.1222
10.9528,0.1378
10.9556,0.1372
10.9583,0.1534
10.9611,0.1529
10.9639,0.1529
10.9667,0.1329
10.9694,0.1609
10.9722,0.1297
10.975,0.1529
10.9778,0.1366
10.9806,0.1659
10.9833,0.1606
10.9861,0.1337
10.9889,0.1521
10.9917,0.1469
10.9944,0.1347
10.9972,0.1542
11.0,0.1342
11.0028,0.1402
11.0056,0.1351
11.0083,0.1455
11.0111,0.1223
11.0139,0.1167
11.0167,0.1204
11.0194,0.125
11.0222,0.1171
11.025,0.118
11.0278,0.0845
11.0306,0.1007
11.0333,0.0945
11.0361,0.0699
11.0389,0.0904
11.0417,0.08
11.0444,0.0759
11.0472,0.0751
11.05,0.0482
11.0528,0.0384
11.0556,0.0419
11.0583,0.0385
11.0611,0.016
11.0639,0.0157
11.0667,0.0157
11.0694,0.0076
11.0722,0.0149
11.075,-0.014
11.0778,0.0205
11.0806,-0.0001
11.0833,-0.0003
11.0861,0.0149
11.0889,-0.0072
11.0917,0.0112
11.0944,0.0089
11.0972,-0.0032
11.1,-0.0108
11.1028,0.0032
11.1056,0.0014
11.1083,0.0054
11.1111,-0.0096
11.1139,0.0002
11.1167,-0.0141
11.1194,-0.0177
11.1222,0.0008
11.125,0.0099
11.1278,0.0037
11.1306,0.0003
11.1333,-0.0056
11.1361,-0.0149
11.1389,0.0015
11.1417,-0.0074
11.1444,0.0094
11.1472,0.0086
11.15,0.0063
11.1528,-0.0405
11.1556,0.0052
11.1583,-0.0069
11.1611,-0.0093
11.1639,0.0003
11.1667,0.0028
11.1694,0.0116
11.1722,-0.0013
11.175,-0.0071
11.1778,-0.0004
11.1806,0.0156
11.1833,-0.008
11.1861,-0.0146
11.1889,0.0006
11.1917,0.0053
11.1944,0.0002
11.1972,-0.011
11.2,-0.0089
11.2028,0.0015
11.2056,0.0092
11.2083,-0.0267
11.2111,-0.0117
11.2139,0.0012
11.2167,0.0144
11.2194,0.0018
11.2222,-0.0015
11.225,-0.0003
11.2278,-0.0112
11.2306,0.0055
11.2333,-0.0041
11.2361,0.0155
11.2389,-0.0058
11.2417,-0.0017
11.2444,-0.0003
11.2472,0.0012
11.25,-0.0173
11.2528,-0.0169
11.2556,-0.003
11.2583,-0.0018
11.2611,-0.0092
11.2639,0.0116
11.2667,0.0146
11.2694,-0.0046
11.2722,-0.0089
11.275,0.002
11.2778,-0.0007
11.2806,-0.011
11.2833,0.0039
11.2861,-0.0109
11.2889,0.0153
11.2917,0.0002
11.2944,-0.0108
11.2972,-0.0116
11.3,0.0075
11.3028,0.0017
11.3056,-0.0057
11.3083,0.0029
11.3111,0.0148
11.3139,0.0071
11.3167,0.0173
11.3194,-0.0005
11.3222,-0.018
11.325,0.0083
11.3278,-0.0181
11.3306,0.0183
11.3333,0.018
11.3361,0.0082
11.3389,0.0118
11.3417,0.0128
11.3444,0.0002
11.3472,0.0023
11.35,0.0026
11.3528,0.0197
11.3556,-0.0047
11.3583,-0.0033
11.3611,-0.0027
11.3639,-0.0036
11.3667,-0.006
11.3694,0.0026
11.3722,-0.0018
11.375,0.0025
11.3778,-0.0158
11.3806,-0.004
11.3833,-0.0137
11.3861,-0.0064
11.3889,0.0163
11.3917,0.001
11.3944,0.0043
11.3972,-0.0098
11.4,-0.0032
11.4028,0.0042
11.4056,-0.0005
11.4083,0.0104
11.4111,0.0094
11.4139,0.0008
11.4167,-0.0044
11.4194,-0.007
11.4222,0.0079
11.425,-0.0065
11.4278,0.0047
11.4306,-0.0027
11.4333,0.001
11.4361,-0.0015
11.4389,-0.0211
11.4417,0.0045
11.4444,0.0191
11.4472,-0.005
11.45,0.0089
11.4528,0.0195
11.4556,0.0348
11.4583,0.0308
11.4611,0.0351
11.4639,0.0339
11.4667,0.0249
11.4694,0.0547
11.4722,0.0467
11.475,0.0559
11.4778,0.0634
11.4806,0.0641
11.4833,0.0674
11.4861,0.0672
11.4889,0.0911
11.4917,0.054
11.4944,0.0647
11.4972,0.0701
11.5,0.101
11.5028,0.0742
11.5056,0.0779
11.5083,0.0724
11.5111,0.079
11.5139,0.0731
11.5167,0.0814
11.5194,0.0824
11.5222,0.0734
11.525,0.0593
11.5278,0.0662
11.5306,0.0762
11.5333,0.0708
11.5361,0.0655
11.5389,0.0599
11.5417,0.0574
11.5444,0.0444
11.5472,0.0459
11.55,0.0339
11.5528,0.0434
11.5556,0.0399
11.5583,0.035
11.5611,0.0201
11.5639,0.0196
11.5667,0.0032
11.5694,0.0113
11.5722,0.0176
11.575,-0.0137
11.5778,0.0192
11.5806,-0.0
11.5833,0.0044
11.5861,0.0009
11.5889,0.0144
11.5917,0.0043
11.5944,0.0006
11.5972,-0.0089
11.6,0.0198
11.6028,0.0094
11.6056,0.0289
11.6083,-0.0069
11.6111,0.0017
11.6139,-0.0109
11.6167,-0.0182
11.6194,-0.0071
11.6222,0.0014
11.625,0.0161
11.6278,-0.0004
11.6306,0.0133
11.6333,-0.0124
11.6361,-0.0261
11.6389,-0.0123
11.6417,-0.0286
11.6444,-0.0433
11.6472,-0.0279
11.65,-0.0159
11.6528,-0.0049
11.6556,0.1192
11.6583,0.2658
11.6611,0.3422
11.6639,0.4681
11.6667,0.5573
11.6694,0.6289
11.6722,0.6936
11.675,0.7641
11.6778,0.7821
11.6806,0.7966
11.6833,0.822
11.6861,0.785
11.6889,0.7392
11.6917,0.6797
11.6944,0.6124
11.6972,0.5324
11.7,0.4185
11.7028,0.3218
11.7056,0.213
11.7083,0.0655
11.7111,-0.0098
11.7139,-0.0355
11.7167,-0.0619
11.7194,-0.0737
11.7222,-0.1048
11.725,-0.1237
11.7278,-0.112
11.7306,-0.1307
11.7333,-0.1196
11.7361,-0.0931
11.7389,-0.0934
11.7417,-0.0701
11.7444,-0.0295
11.7472,-0.0186
11.75,0.0259
11.7528,-0.0104
11.7556,-0.0041
11.7583,0.0102
11.7611,0.0028
11.7639,-0.002
11.7667,0.0194
11.7694,-0.0094
11.7722,-0.0048
11.775,-0.0007
11.7778,-0.0108
11.7806,-0.0107
11.7833,0.0088
11.7861,-0.0062
11.7889,0.0066
11.7917,0.004
11.7944,-0.0061
11.7972,-0.0106
11.8,-0.0039
11.8028,-0.0108
11.8056,0.0099
11.8083,-0.006
11.8111,-0.0062
11.8139,0.0041
11.8167,-0.009
11.8194,-0.0041
11.8222,0.0003
11.825,-0.0038
11.8278,-0.0175
11.8306,0.0093
11.8333,-0.0033
11.8361,-0.0009
11.8389,0.0098
11.8417,0.0124
11.8444,0.0069
11.8472,0.0123
11.85,0.0104
11.8528,0.0235
11.8556,0.0255
11.8583,0.0345
11.8611,0.0355
11.8639,0.0522
11.8667,0.0642
11.8694,0.0749
11.8722,0.0728
11.875,0.0825
11.8778,0.0993
11.8806,0.0789
11.8833,0.1022
11.8861,0.1083
11.8889,0.0913
11.8917,0.1168
11.8944,0.1058
11.8972,0.1278
11.9,0.1208
11.9028,0.1347
11.9056,0.1376
11.9083,0.1421
11.9111,0.1244
11.9139,0.1436
11.9167,0.134
11.9194,0.1194
11.9222,0.1591
11.925,0.1655
11.9278,0.1477
11.9306,0.1421
11.9333,0.1462
11.9361,0.1602
11.9389,0.1634
11.9417,0.1444
11.9444,0.1635
11.9472,0.1599
11.95,0.1441
11.9528,0.1368
11.9556,0.1408
11.9583,0.1439
11.9611,0.1562
11.9639,0.1403
11.9667,0.1473
11.9694,0.1212
11.9722,0.1298
11.975,0.1244
11.9778,0.1224
11.9806,0.1176
11.9833,0.0962
11.9861,0.0981
11.9889,0.0971
11.9917,0.099
11.9944,0.0994
11.9972,0.0745
12.0,0.0725
12.0028,0.0794
12.0056,0.0569
12.0083,0.0781
12.0111,0.0648
12.0139,0.0578
12.0167,0.0607
12.0194,0.0512
12.0222,0.0355
12.025,0.0135
12.0278,0.0062
12.0306,0.0161
12.0333,-0.0071
12.0361,-0.0075
12.0389,-0.0145
12.0417,-0.0033
12.0444,-0.0026
12.0472,-0.0095
12.05,-0.0018
12.0528,-0.005
12.0556,0.0129
12.0583,0.0053
12.0611,0.0027
12.0639,-0.004
12.0667,0.0061
12.0694,0.0079
12.0722,0.0055
12.075,-0.0078
12.0778,-0.0122
12.0806,0.0131
12.0833,-0.0155
12.0861,-0.0089
12.0889,0.007
12.0917,0.012
12.0944,-0.004
12.0972,0.0067
12.1,0.0103
12.1028,-0.0113
12.1056,-0.0029
12.1083,-0.0075
12.1111,-0.0048
12.1139,0.0013
12.1167,0.0171
12.1194,-0.0045
12.1222,0.0023
12.125,-0.0112
12.1278,-0.0131
12.1306,0.0075
12.1333,0.0149
12.1361,-0.0069
12.1389,0.0049
12.1417,0.0003
12.1444,0.0045
12.1472,-0.0028
12.15,-0.0122
12.1528,-0.0063
12.1556,-0.0185
12.1583,0.0117
12.1611,-0.0122
12.1639,0.013
12.1667,0.0024
12.1694,-0.0106
12.1722,0.0042
12.175,0.0092
12.1778,0.0034
12.1806,-0.0045
12.1833,0.0129
12.1861,-0.0166
12.1889,-0.0092
12.1917,-0.0102
12.1944,-0.0036
12.1972,-0.0047
12.2,-0.0144
12.2028,0.0075
12.2056,-0.0122
12.2083,0.0126
12.2111,0.0237
12.2139,0.0076
12.2167,0.0094
12.2194,-0.0157
12.2222,-0.0151
12.225,0.0098
12.2278,-0.0032
12.2306,0.0066
12.2333,-0.0071
12.2361,0.0043
12.2389,-0.0004
12.2417,0.0251
12.2444,-0.0025
12.2472,-0.0018
12.25,-0.0045
12.2528,-0.0
12.2556,-0.0046
12.2583,0.0196
12.2611,0.022
12.2639,0.0117
12.2667,-0.0121
12.2694,0.0013
12.2722,0.0036
12.275,0.0066
12.2778,0.0104
12.2806,0.0016
12.2833,-0.0112
12.2861,0.0097
12.2889,0.0094
12.2917,-0.0071
12.2944,-0.0139
12.2972,-0.0072
12.3,-0.0292
12.3028,-0.0147
12.3056,0.0087
12.3083,-0.0187
12.3111,-0.009
12.3139,-0.0101
12.3167,0.0053
12.3194,-0.0015
12.3222,0.0101
12.325,-0.0195
12.3278,-0.0082
12.3306,-0.0104
12.3333,0.005
12.3361,0.0197
12.3389,0.0056
12.3417,-0.0007
12.3444,0.0117
12.3472,-0.004
12.35,-0.002
12.3528,-0.0083
12.3556,0.0073
12.3583,0.0139
12.3611,0.0127
12.3639,-0.0016
12.3667,-0.0019
12.3694,-0.0111
12.3722,0.0149
12.375,-0.0054
12.3778,-0.0116
12.3806,-0.0087
12.3833,0.0055
12.3861,-0.0111
12.3889,0.0132
12.3917,0.0001
12.3944,-0.0099
12.3972,0.0012
12.4,-0.0079
12.4028,0.0002
12.4056,0.0192
12.4083,0.011
12.4111,0.0097
12.4139,0.014
12.4167,0.0196
12.4194,0.0342
12.4222,0.0404
12.425,0.0389
12.4278,0.0573
12.4306,0.0636
12.4333,0.0601
12.4361,0.0656
12.4389,0.0614
12.4417,0.0653
12.4444,0.0685
12.4472,0.0827
12.45,0.078
12.4528,0.0621
12.4556,0.0596
12.4583,0.0753
12.4611,0.0664
12.4639,0.0774
12.4667,0.0984
12.4694,0.0729
12.4722,0.0711
12.475,0.078
12.4778,0.081
12.4806,0.0867
12.4833,0.0543
12.4861,0.0681
12.4889,0.0834
12.4917,0.0702
12.4944,0.0499
12.4972,0.0581
12.5,0.0751
12.5028,0.0569
12.5056,0.0567
12.5083,0.0306
12.5111,0.0359
12.5139,0.0333
12.5167,0.0423
12.5194,0.0307
12.5222,0.0001
12.525,0.0426
12.5278,0.0085
12.5306,0.0193
12.5333,0.0038
12.5361,-0.0038
12.5389,0.0139
12.5417,-0.0111
12.5444,-0.0043
12.5472,0.0046
12.55,0.0015
12.5528,0.0009
12.5556,0.0035
12.5583,0.0137
12.5611,-0.0045
12.5639,-0.0026
12.5667,-0.0321
12.5694,0.0104
12.5722,-0.0049
12.575,0.0072
12.5778,-0.0132
12.5806,-0.0142
12.5833,-0.0163
12.5861,-0.0162
12.5889,-0.0077
12.5917,0.0082
12.5944,-0.0035
12.5972,-0.0246
12.6,-0.034
12.6028,-0.0462
12.6056,-0.0296
12.6083,-0.0333
12.6111,-0.0272
12.6139,-0.0143
12.6167,0.09
12.6194,0.2265
12.6222,0.3373
12.625,0.4215
12.6278,0.5133
12.6306,0.6101
12.6333,0.6856
12.6361,0.7414
12.6389,0.7803
12.6417,0.7768
12.6444,0.7974
12.6472,0.7925
12.65,0.7481
12.6528,0.7029
12.6556,0.6392
12.6583,0.5523
12.6611,0.4784
12.6639,0.3742
12.6667,0.2504
12.6694,0.144
12.6722,0.0306
12.675,-0.0403
12.6778,-0.0688
12.6806,-0.0761
12.6833,-0.0966
12.6861,-0.0903
12.6889,-0.1166
12.6917,-0.1156
12.6944,-0.1101
12.6972,-0.1075
12.7,-0.0991
12.7028,-0.0826
12.7056,-0.0783
12.7083,-0.0328
12.7111,-0.0078
12.7139,0.0037
12.7167,0.0052
12.7194,0.0022
12.7222,-0.0137
12.725,-0.0093
12.7278,0.0162
12.7306,-0.0029
12.7333,0.009
12.7361,0.001
12.7389,-0.0086
12.7417,0.0218
12.7444,0.005
12.7472,-0.0001
12.75,-0.0258
12.7528,0.0023
12.7556,0.012
12.7583,-0.0112
12.7611,0.0124
12.7639,-0.0163
12.7667,0.0195
12.7694,-0.0159
12.7722,0.0079
12.775,0.0161
12.7778,0.0136
12.7806,0.0156
12.7833,0.0142
12.7861,-0.004
12.7889,-0.0005
12.7917,-0.0211
12.7944,0.0109
12.7972,0.01
12.8,-0.0069
12.8028,-0.0018
12.8056,-0.0165
12.8083,0.0071
12.8111,0.0194
12.8139,-0.0056
12.8167,0.0045
12.8194,0.0062
12.8222,0.0317
12.825,0.0391
12.8278,0.026
12.8306,0.0491
12.8333,0.0556
12.8361,0.0771
12.8389,0.0806
12.8417,0.063
12.8444,0.0909
12.8472,0.0739
12.85,0.0909
12.8528,0.1014
12.8556,0.0899
12.8583,0.1174
12.8611,0.1146
12.8639,0.1291
12.8667,0.1211
12.8694,0.1378
12.8722,0.1203
12.875,0.1243
12.8778,0.1258
12.8806,0.1226
12.8833,0.1459
12.8861,0.1374
12.8889,0.1332
12.8917,0.1455
12.8944,0.1489
12.8972,0.1468
12.9,0.1581
12.9028,0.1468
12.9056,0.1749
12.9083,0.1577
12.9111,0.1515
12.9139,0.1286
12.9167,0.1449
12.9194,0.1389
12.9222,0.1459
12.925,0.1553
12.9278,0.1414
12.9306,0.1504
12.9333,0.126
12.9361,0.1312
12.9389,0.1356
12.9417,0.1165
12.9444,0.1144
12.9472,0.1129
12.95,0.1147
12.9528,0.1244
12.9556,0.0941
12.9583,0.0889
12.9611,0.0901
12.9639,0.0759
12.9667,0.102
12.9694,0.087
12.9722,0.0798
12.975,0.0647
12.9778,0.049
12.9806,0.0475
12.9833,0.0533
12.9861,0.0496
12.9889,0.0458
12.9917,0.0312
12.9944,0.0191
12.9972,-0.0064
13.0,0.0069
13.0028,-0.0086
13.0056,0.0084
13.0083,-0.0012
13.0111,0.0042
13.0139,0.0193
13.0167,0.0125
13.0194,-0.0079
13.0222,0.0017
13.025,-0.0038
13.0278,-0.0054
13.0306,0.0044
13.0333,0.0069
13.0361,-0.0017
13.0389,0.0186
13.0417,0.005
13.0444,0.0045
13.0472,0.0016
13.05,0.0038
13.0528,0.0226
13.0556,-0.0088
13.0583,-0.006
13.0611,0.0248
13.0639,0.003
13.0667,0.0025
13.0694,-0.0012
13.0722,0.005
13.075,-0.0043
13.0778,-0.0086
13.0806,-0.0108
13.0833,-0.0112
13.0861,0.004
13.0889,-0.0093
13.0917,-0.0016
13.0944,-0.0054
13.0972,-0.0083
13.1,-0.013
13.1028,0.0129
13.1056,0.0033
13.1083,-0.0176
13.1111,-0.0218
13.1139,0.0033
13.1167,-0.0111
13.1194,0.0016
13.1222,-0.0044
13.125,0.0011
13.1278,0.0131
13.1306,-0.0242
13.1333,-0.0105
13.1361,0.0001
13.1389,-0.0089
13.1417,0.005
13.1444,-0.0083
13.1472,0.0045
13.15,0.0086
13.1528,0.0047
13.1556,0.001
13.1583,0.0114
13.1611,0.0073
13.1639,-0.0092
13.1667,0.0086
13.1694,0.0149
13.1722,-0.0204
13.175,-0.0134
13.1778,-0.0146
13.1806,0.0007
13.1833,-0.0011
13.1861,-0.0151
13.1889,-0.0007
13.1917,0.0036
13.1944,0.0022
13.1972,-0.0066
13.2,-0.0096
13.2028,0.0089
13.2056,-0.0075
13.2083,0.0189
13.2111,-0.0287
13.2139,0.0145
13.2167,-0.0108
13.2194,-0.0205
13.2222,-0.0018
13.225,-0.0079
13.2278,0.0082
13.2306,0.0095
13.2333,-0.0163
13.2361,-0.0075
13.2389,-0.0012
13.2417,0.0113
13.2444,-0.0191
13.2472,0.0308
13.25,0.0072
13.2528,-0.0045
13.2556,0.0069
13.2583,0.0121
13.2611,-0.0158
13.2639,-0.0111
13.2667,0.0021
13.2694,0.0028
13.2722,-0.0034
13.275,0.0032
13.2778,-0.01
13.2806,0.0054
13.2833,0.0113
13.2861,0.0097
13.2889,-0.0049
13.2917,-0.0029
13.2944,0.0063
13.2972,-0.0113
13.3,0.0052
13.3028,-0.0003
13.3056,-0.0041
13.3083,-0.0112
13.3111,0.0003
13.3139,0.0089
13.3167,-0.0096
13.3194,0.0018
13.3222,0.0118
13.325,-0.0097
13.3278,-0.0001
13.3306,0.0079
13.3333,-0.0083
13.3361,0.0027
13.3389,0.0027
13.3417,-0.0044
13.3444,0.0092
13.3472,0.0131
13.35,-0.0108
13.3528,0.0003
13.3556,-0.0099
13.3583,-0.0141
13.3611,-0.0133
13.3639,0.0094
13.3667,-0.007
13.3694,0.0061
13.3722,-0.0018
13.375,-0.0085
13.3778,0.0098
13.3806,0.0198
13.3833,0.0046
13.3861,0.0262
13.3889,0.0367
13.3917,0.0334
13.3944,0.0396
13.3972,0.0392
13.4,0.0572
13.4028,0.0521
13.4056,0.0499
13.4083,0.049
13.4111,0.0485
13.4139,0.0553
13.4167,0.0735
13.4194,0.072
13.4222,0.0721
13.425,0.0729
13.4278,0.0752
13.4306,0.0751
13.4333,0.0835
13.4361,0.074
13.4389,0.0915
13.4417,0.0779
13.4444,0.0809
13.4472,0.0707
13.45,0.0828
13.4528,0.0849
13.4556,0.0891
13.4583,0.0662
13.4611,0.0658
13.4639,0.0836
13.4667,0.0723
13.4694,0.0526
13.4722,0.0532
13.475,0.0395
13.4778,0.066
13.4806,0.0578
13.4833,0.0432
13.4861,0.0605
13.4889,0.0276
13.4917,0.0146
13.4944,0.0251
13.4972,0.0283
13.5,0.0098
13.5028,-0.002
13.5056,-0.0068
13.5083,-0.0085
13.5111,-0.008
13.5139,-0.0013
13.5167,-0.0174
13.5194,0.0083
13.5222,0.0171
13.525,-0.0124
13.5278,0.0145
13.5306,-0.0136
13.5333,0.0051
13.5361,0.0118
13.5389,-0.0052
13.5417,-0.0044
13.5444,-0.0011
13.5472,-0.0037
13.55,-0.002
13.5528,-0.0127
13.5556,0.0061
13.5583,0.0092
13.5611,0.004
13.5639,-0.0006
13.5667,-0.0019
13.5694,-0.0169
13.5722,-0.021
13.575,-0.0346
13.5778,-0.0457
13.5806,-0.0375
13.5833,-0.0144
13.5861,-0.0007
13.5889,0.1351
13.5917,0.2427
13.5944,0.347
13.5972,0.46
13.6,0.5567
13.6028,0.6399
13.6056,0.7176
13.6083,0.7503
13.6111,0.7862
13.6139,0.7882
13.6167,0.8024
13.6194,0.7787
13.6222,0.7325
13.625,0.6836
13.6278,0.605
13.6306,0.5255
13.6333,0.4287
13.6361,0.3146
13.6389,0.2081
13.6417,0.0798
13.6444,0.0008
13.6472,-0.0218
13.65,-0.0631
13.6528,-0.0809
13.6556,-0.0963
13.6583,-0.1175
13.6611,-0.1255
13.6639,-0.1158
13.6667,-0.1317
13.6694,-0.0918
13.6722,-0.0956
13.675,-0.0473
13.6778,-0.0305
13.6806,-0.0165
13.6833,-0.0043
13.6861,0.0122
13.6889,0.0119
13.6917,-0.0009
13.6944,-0.0037
13.6972,0.0172
13.7,-0.0143
13.7028,-0.0064
13.7056,0.027
13.7083,-0.0143
13.7111,0.0069
13.7139,0.0124
13.7167,0.0166
13.7194,-0.0231
13.7222,0.0075
13.725,0.0089
13.7278,-0.0146
13.7306,0.0179
13.7333,-0.0083
13.7361,0.0004
13.7389,-0.0034
13.7417,-0.003
13.7444,0.0004
13.7472,0.0031
13.75,0.0004
13.7528,0.0112
13.7556,0.0048
13.7583,-0.0001
13.7611,0.0086
13.7639,-0.0157
13.7667,0.0015
13.7694,-0.0105
13.7722,-0.0197
13.775,0.0018
13.7778,-0.0016
13.7806,-0.0104
13.7833,0.0172
13.7861,0.0002
13.7889,0.0396
13.7917,0.0459
13.7944,0.0325
13.7972,0.0429
13.8,0.0643
13.8028,0.0491
13.8056,0.0685
13.8083,0.0905
13.8111,0.0827
13.8139,0.0781
13.8167,0.0855
13.8194,0.102
13.8222,0.0859
13.825,0.1059
13.8278,0.1048
13.8306,0.1329
13.8333,0.1146
13.8361,0.1126
13.8389,0.1235
13.8417,0.1288
13.8444,0.1542
13.8472,0.1455
13.85,0.1404
13.8528,0.137
13.8556,0.1416
13.8583,0.1536
13.8611,0.156
13.8639,0.1392
13.8667,0.1456
13.8694,0.1639
13.8722,0.1447
13.875,0.1547
13.8778,0.1624
13.8806,0.1319
13.8833,0.1437
13.8861,0.1434
13.8889,0.1445
13.8917,0.1504
13.8944,0.1366
13.8972,0.1317
13.9,0.1599
13.9028,0.1288
13.9056,0.1352
13.9083,0.1411
13.9111,0.1232
13.9139,0.1402
13.9167,0.1145
13.9194,0.1171
13.9222,0.1025
13.925,0.0892
13.9278,0.1196
13.9306,0.1031
13.9333,0.1074
13.9361,0.0814
13.9389,0.0733
13.9417,0.0738
13.9444,0.0795
13.9472,0.0596
13.95,0.0347
13.9528,0.0433
13.9556,0.0396
13.9583,0.0118
13.9611,0.0282
13.9639,0.0335
13.9667,0.0195
13.9694,0.0039
13.9722,-0.0116
13.975,-0.0029
13.9778,0.0049
13.9806,0.0035
13.9833,-0.0145
13.9861,0.0069
13.9889,-0.0085
13.9917,0.0041
13.9944,0.0068
13.9972,0.0051
14.0,-0.0057
14.0028,0.0003
14.0056,-0.0016
14.0083,-0.0001
14.0111,0.0124
14.0139,-0.0059
14.0167,0.0023
14.0194,0.0145
14.0222,-0.0126
14.025,0.0103
14.0278,-0.0156
14.0306,-0.0134
14.0333,-0.0025
14.0361,-0.0019
14.0389,-0.0078
14.0417,-0.0055
14.0444,0.0009
14.0472,-0.0082
14.05,-0.0131
14.0528,-0.0028
14.0556,-0.0007
14.0583,0.0066
14.0611,0.0032
14.0639,0.0012
14.0667,0.0079
14.0694,0.0003
14.0722,0.0172
14.075,-0.0154
14.0778,0.0294
14.0806,0.0183
14.0833,-0.0047
14.0861,0.0045
14.0889,-0.0111
14.0917,0.0129
14.0944,-0.0062
14.0972,-0.006
14.1,0.0062
14.1028,-0.0052
14.1056,0.0167
14.1083,0.0172
14.1111,0.0144
14.1139,-0.0035
14.1167,0.0027
14.1194,-0.0098
14.1222,-0.0192
14.125,-0.0018
14.1278,-0.0058
14.1306,0.0126
14.1333,0.0054
14.1361,-0.0214
14.1389,0.0034
14.1417,0.0035
14.1444,-0.005
14.1472,-0.0127
14.15,0.02
14.1528,0.0093
14.1556,-0.0051
14.1583,-0.0078
14.1611,-0.0054
14.1639,0.0157
14.1667,0.0061
14.1694,-0.0085
14.1722,0.0001
14.175,0.0164
14.1778,-0.0155
14.1806,0.0014
14.1833,0.0083
14.1861,0.004
14.1889,-0.0013
14.1917,-0.006
14.1944,0.0173
14.1972,-0.0118
14.2,-0.0063
14.2028,0.0018
14.2056,-0.0079
14.2083,-0.0001
14.2111,0.0119
14.2139,-0.0257
14.2167,0.0018
14.2194,-0.0024
14.2222,0.003
14.225,0.007
14.2278,-0.0032
14.2306,-0.0238
14.2333,0.0102
14.2361,-0.0036
14.2389,-0.005
14.2417,-0.0141
14.2444,-0.013
14.2472,0.0074
14.25,-0.0108
14.2528,0.0056
14.2556,0.0002
14.2583,0.0139
14.2611,-0.0081
14.2639,0.0048
14.2667,0.0042
14.2694,-0.0169
14.2722,-0.0057
14.275,0.0002
14.2778,-0.0021
14.2806,-0.0091
14.2833,0.0104
14.2861,-0.0076
14.2889,-0.008
14.2917,0.0093
14.2944,-0.0025
14.2972,0.0003
14.3,-0.0116
14.3028,-0.0019
14.3056,-0.0012
14.3083,-0.0115
14.3111,0.0032
14.3139,0.0023
14.3167,0.0049
14.3194,-0.0083
14.3222,-0.0005
14.325,0.0017
14.3278,-0.0052
14.3306,-0.0136
14.3333,-0.0082
14.3361,0.0022
14.3389,-0.0006
14.3417,-0.0008
14.3444,-0.0022
14.3472,0.0124
14.35,0.0111
14.3528,0.0174
14.3556,0.0257
14.3583,0.0365
14.3611,0.0357
14.3639,0.0309
14.3667,0.0519
14.3694,0.0406
14.3722,0.0447
14.375,0.0463
14.3778,0.0659
14.3806,0.0781
14.3833,0.0714
14.3861,0.067
14.3889,0.0681
14.3917,0.0757
14.3944,0.081
14.3972,0.0832
14.4,0.0714
14.4028,0.078
14.4056,0.0811
14.4083,0.0634
14.4111,0.0921
14.4139,0.0852
14.4167,0.0684
14.4194,0.0728
14.4222,0.0775
14.425,0.0786
14.4278,0.0805
14.4306,0.0799
14.4333,0.0535
14.4361,0.0765
14.4389,0.0611
14.4417,0.0705
14.4444,0.0787
14.4472,0.0721
14.45,0.0554
14.4528,0.0437
14.4556,0.0395
14.4583,0.0541
14.4611,0.0414
14.4639,0.0166
14.4667,0.0204
14.4694,0.0272
14.4722,0.0126
14.475,0.0087
14.4778,0.0066
14.4806,0.0286
14.4833,0.003
14.4861,0.0013
14.4889,0.0104
14.4917,-0.0198
14.4944,-0.0046
14.4972,-0.0097
14.5,-0.0115
14.5028,0.0125
14.5056,0.0044
14.5083,0.004
14.5111,0.0173
14.5139,0.0076
14.5167,0.0064
14.5194,0.0134
14.5222,-0.012
14.525,0.0055
14.5278,-0.0178
14.5306,0.0126
14.5333,-0.0044
14.5361,0.0134
14.5389,0.0015
14.5417,-0.0061
14.5444,-0.006
14.5472,-0.0139
14.55,-0.017
14.5528,-0.0308
14.5556,-0.0432
14.5583,-0.0303
14.5611,0.0014
14.5639,0.0015
14.5667,0.0138
14.5694,0.1438
14.5722,0.2488
14.575,0.3588
14.5778,0.4494
14.5806,0.5456
14.5833,0.6215
14.5861,0.6805
14.5889,0.7472
14.5917,0.7604
14.5944,0.7956
14.5972,0.7976
14.6,0.7929
14.6028,0.7822
14.6056,0.7289
14.6083,0.6617
14.6111,0.5774
14.6139,0.5026
14.6167,0.4287
14.6194,0.3168
14.6222,0.1919
14.625,0.0968
14.6278,0.0021
14.6306,-0.0056
14.6333,-0.0542
14.6361,-0.0818
14.6389,-0.0851
14.6417,-0.1081
14.6444,-0.1065
14.6472,-0.1029
14.65,-0.1203
14.6528,-0.1098
14.6556,-0.0979
14.6583,-0.072
14.6611,-0.0596
14.6639,-0.0449
14.6667,-0.0053
14.6694,-0.0048
14.6722,-0.0044
14.675,-0.0017
14.6778,-0.0105
14.6806,-0.007
14.6833,-0.0083
14.6861,-0.0021
14.6889,-0.0042
14.6917,0.0027
14.6944,0.0184
14.6972,-0.0087
14.7,-0.0012
14.7028,-0.0056
14.7056,-0.0092
14.7083,-0.0237
14.7111,-0.0041
14.7139,-0.0163
14.7167,-0.0019
14.7194,-0.0171
14.7222,0.0008
14.725,-0.0044
14.7278,-0.0041
14.7306,-0.0027
14.7333,0.0071
14.7361,0.0095
14.7389,-0.0076
14.7417,0.0123
14.7444,0.0097
14.7472,-0.003
14.75,-0.0027
14.7528,-0.0063
14.7556,0.0083
14.7583,0.0054
14.7611,0.0152
14.7639,0.0018
14.7667,-0.0044
14.7694,0.0022
14.7722,-0.005
14.775,0.0071
14.7778,0.0096
14.7806,0.036
14.7833,0.0406
14.7861,0.0414
14.7889,0.0479
14.7917,0.0366
14.7944,0.0725
14.7972,0.0634
14.8,0.0666
14.8028,0.0986
14.8056,0.0749
14.8083,0.0935
14.8111,0.1003
14.8139,0.0913
14.8167,0.089
14.8194,0.1034
14.8222,0.0818
14.825,0.1316
14.8278,0.1019
14.8306,0.1361
14.8333,0.11
14.8361,0.126
14.8389,0.1245
14.8417,0.1396
14.8444,0.1247
14.8472,0.1475
14.85,0.1389
14.8528,0.1524
14.8556,0.1527
14.8583,0.1384
14.8611,0.1604
14.8639,0.1448
14.8667,0.138
14.8694,0.1491
14.8722,0.1534
14.875,0.133
14.8778,0.144
14.8806,0.1538
14.8833,0.1385
14.8861,0.1402
14.8889,0.143
14.8917,0.1342
14.8944,0.1413
14.8972,0.1352
14.9,0.1294
14.9028,0.1313
14.9056,0.1318
14.9083,0.1313
14.9111,0.1212
14.9139,0.1179
14.9167,0.1073
14.9194,0.1231
14.9222,0.1076
14.925,0.1141
14.9278,0.0945
14.9306,0.0827
14.9333,0.0768
14.9361,0.0602
14.9389,0.0671
14.9417,0.0684
14.9444,0.0636
14.9472,0.0727
14.95,0.0454
14.9528,0.0278
14.9556,0.0302
14.9583,0.0262
14.9611,0.0376
14.9639,0.0204
14.9667,-0.0089
14.9694,0.0099
14.9722,0.0052
14.975,-0.0038
14.9778,0.0076
14.9806,-0.0032
14.9833,-0.0063
14.9861,-0.0076
14.9889,0.0022
14.9917,0.0054
14.9944,-0.0087
14.9972,0.0085
15.0,-0.0101
15.0028,0.0055
15.0056,-0.0103
15.0083,0.0106
15.0111,-0.0106
15.0139,0.0063
15.0167,-0.0053
15.0194,0.0178
15.0222,0.0206
15.025,0.0003
15.0278,-0.0069
15.0306,-0.0125
15.0333,0.0037
15.0361,0.0057
15.0389,0.0021
15.0417,-0.02
15.0444,-0.0034
15.0472,0.002
15.05,-0.0066
15.0528,-0.0132
15.0556,-0.0098
15.0583,-0.0009
15.0611,-0.0129
15.0639,-0.0037
15.0667,-0.004
15.0694,0.0089
15.0722,0.0176
15.075,-0.017
15.0778,-0.0113
15.0806,-0.007
15.0833,0.0117
15.0861,-0.0018
15.0889,0.0075
15.0917,-0.0
15.0944,0.017
15.0972,-0.0077
15.1,0.0023
15.1028,0.0092
15.1056,-0.0042
15.1083,0.0111
15.1111,0.0118
15.1139,0.0114
15.1167,0.0013
15.1194,0.0009
15.1222,-0.0165
15.125,-0.0029
15.1278,0.0059
15.1306,0.0097
15.1333,-0.006
15.1361,-0.0145
15.1389,-0.003
15.1417,-0.0023
15.1444,0.004
15.1472,0.0018
15.15,0.0075
15.1528,0.0161
15.1556,0.002
15.1583,0.0015
15.1611,0.0042
15.1639,-0.0242
15.1667,0.0016
15.1694,-0.0117
15.1722,0.0007
15.175,-0.006
15.1778,0.0093
15.1806,-0.0048
15.1833,0.0139
15.1861,0.0107
15.1889,0.0166
15.1917,0.004
15.1944,-0.0022
15.1972,0.015
15.2,-0.0216
15.2028,-0.0074
15.2056,-0.001
15.2083,0.015
15.2111,-0.01
15.2139,-0.0006
15.2167,0.015
15.2194,-0.0026
15.2222,-0.0137
15.225,0.0028
15.2278,0.0072
15.2306,-0.0041
15.2333,-0.0008
15.2361,0.0115
15.2389,0.0131
15.2417,0.0119
15.2444,0.0165
15.2472,-0.0081
15.25,0.0184
15.2528,-0.0011
15.2556,-0.0062
15.2583,-0.0042
15.2611,-0.0063
15.2639,-0.002
15.2667,-0.0055
15.2694,-0.007
15.2722,0.0221
15.275,-0.0039
15.2778,0.0131
15.2806,0.016
15.2833,0.0087
15.2861,0.0084
15.2889,0.008
15.2917,0.0108
15.2944,-0.0069
15.2972,-0.0013
15.3,0.0017
15.3028,-0.0205
15.3056,-0.0059
15.3083,-0.0109
15.3111,0.0014
15.3139,-0.0005
15.3167,-0.0046
15.3194,0.0144
15.3222,-0.0047
15.325,-0.0237
15.3278,0.0048
15.3306,0.0147
15.3333,-0.0071
15.3361,-0.0064
15.3389,-0.0002
15.3417,-0.0006
15.3444,0.0004
15.3472,-0.0053
15.35,0.0046
15.3528,0.0076
15.3556,-0.0203
15.3583,0.0037
15.3611,0.0104
15.3639,-0.0109
15.3667,0.0177
15.3694,-0.0062
15.3722,0.0052
15.375,0.019
15.3778,0.0068
15.3806,0.0335
15.3833,0.0317
15.3861,0.0308
15.3889,0.0172
15.3917,0.035
15.3944,0.0281
15.3972,0.0531
15.4,0.0452
15.4028,0.0624
15.4056,0.0435
15.4083,0.0536
15.4111,0.0513
15.4139,0.064
15.4167,0.0668
15.4194,0.0843
15.4222,0.0704
15.425,0.0641
15.4278,0.0797
15.4306,0.0759
15.4333,0.0933
15.4361,0.0891
15.4389,0.0666
15.4417,0.0971
15.4444,0.0833
15.4472,0.0695
15.45,0.0865
15.4528,0.075
15.4556,0.0731
15.4583,0.0694
15.4611,0.0726
15.4639,0.0636
15.4667,0.078
15.4694,0.0802
15.4722,0.078
15.475,0.0686
15.4778,0.0469
15.4806,0.0566
15.4833,0.0515
15.4861,0.0674
15.4889,0.0521
15.4917,0.0334
15.4944,0.0368
15.4972,0.0446
15.5,0.0181
15.5028,0.0527
15.5056,0.0357
15.5083,0.0131
15.5111,0.0299
15.5139,0.0262
15.5167,0.0079
15.5194,0.0016
15.5222,-0.0052
15.525,0.0058
15.5278,-0.001
15.5306,0.0046
15.5333,-0.0078
15.5361,-0.0188
15.5389,-0.0036
15.5417,0.0066
15.5444,0.0008
15.5472,-0.0039
15.55,0.0031
15.5528,0.0129
15.5556,0.0067
15.5583,0.0031
15.5611,-0.007
15.5639,0.0002
15.5667,-0.0061
15.5694,-0.0143
15.5722,-0.0143
15.575,-0.0085
15.5778,0.0012
15.5806,-0.0079
15.5833,0.0186
15.5861,-0.0121
15.5889,-0.0069
15.5917,-0.0094
15.5944,-0.012
15.5972,-0.0478
15.6,-0.0356
15.6028,-0.0398
15.6056,-0.0284
15.6083,-0.0245
15.6111,-0.0059
15.6139,0.0966
15.6167,0.1986
15.6194,0.3027
15.6222,0.4065
15.625,0.4806
15.6278,0.5775
15.6306,0.6353
15.6333,0.7082
15.6361,0.7403
15.6389,0.7719
15.6417,0.8171
15.6444,0.7951
15.6472,0.798
15.65,0.7829
15.6528,0.7588
15.6556,0.6967
15.6583,0.6368
15.6611,0.5639
15.6639,0.4847
15.6667,0.4072
15.6694,0.3215
15.6722,0.2179
15.675,0.1167
15.6778,0.0063
15.6806,-0.0176
15.6833,-0.0508
15.6861,-0.0607
15.6889,-0.0828
15.6917,-0.096
15.6944,-0.1245
15.6972,-0.1342
15.7,-0.1235
15.7028,-0.1091
15.7056,-0.1258
15.7083,-0.0979
15.7111,-0.11
15.7139,-0.0653
15.7167,-0.052
15.7194,-0.0154
15.7222,-0.0138
15.725,0.0102
15.7278,-0.0331
15.7306,0.0002
15.7333,0.0044
15.7361,0.0047
15.7389,0.0097
15.7417,0.0005
15.7444,0.005
15.7472,0.0144
15.75,0.0023
15.7528,-0.0043
15.7556,-0.0043
15.7583,0.0081
15.7611,0.0072
15.7639,0.0038
15.7667,0.0142
15.7694,-0.0031
15.7722,0.005
15.775,0.0
15.7778,-0.0118
15.7806,-0.004
15.7833,0.0013
15.7861,0.0149
15.7889,0.0103
15.7917,-0.0195
15.7944,0.0029
15.7972,-0.0044
15.8,0.0021
15.8028,-0.0061
15.8056,-0.019
15.8083,0.0134
15.8111,0.0066
15.8139,0.0055
15.8167,-0.0
15.8194,0.0223
15.8222,0.0128
15.825,0.0045
15.8278,-0.0011
15.8306,-0.002
15.8333,0.0073
15.8361,0.0007
15.8389,0.0014
15.8417,0.0326
15.8444,-0.0076
15.8472,0.0348
15.85,0.0457
15.8528,0.0391
15.8556,0.0479
15.8583,0.0576
15.8611,0.0609
15.8639,0.0742
15.8667,0.0704
15.8694,0.074
15.8722,0.0848
15.875,0.0837
15.8778,0.1014
15.8806,0.0893
15.8833,0.0843
15.8861,0.0977
15.8889,0.123
15.8917,0.1201
15.8944,0.1049
15.8972,0.1127
15.9,0.1119
15.9028,0.1078
15.9056,0.1407
15.9083,0.1514
15.9111,0.1447
15.9139,0.1413
15.9167,0.1475
15.9194,0.1351
15.9222,0.1441
15.925,0.1446
15.9278,0.1425
15.9306,0.1584
15.9333,0.1332
15.9361,0.1557
15.9389,0.1658
15.9417,0.1376
15.9444,0.1665
15.9472,0.1449
15.95,0.147
15.9528,0.1389
15.9556,0.1648
15.9583,0.1637
15.9611,0.1437
15.9639,0.1474
15.9667,0.1604
15.9694,0.1157
15.9722,0.1301
15.975,0.1222
15.9778,0.1233
15.9806,0.1259
15.9833,0.1119
15.9861,0.1388
15.9889,0.1267
15.9917,0.1096
15.9944,0.1225
15.9972,0.123
16.0,0.0919
16.0028,0.0723
16.0056,0.1095
16.0083,0.1029
16.0111,0.0809
16.0139,0.0767
16.0167,0.0962
16.0194,0.0668
16.0222,0.0627
16.025,0.0642
16.0278,0.0597
16.0306,0.0573
16.0333,0.0559
16.0361,0.0408
16.0389,0.0439
16.0417,0.0319
16.0444,0.0226
16.0472,0.0065
16.05,0.0156
16.0528,-0.0047
16.0556,0.0099
16.0583,0.0015
16.0611,-0.0025
16.0639,-0.0126
16.0667,0.0081
16.0694,0.0167
16.0722,0.0043
16.075,0.0056
16.0778,-0.001
16.0806,-0.0057
16.0833,-0.0143
16.0861,0.0017
16.0889,0.011
16.0917,-0.0074
16.0944,-0.0056
16.0972,0.0003
16.1,-0.0081
16.1028,0.0064
16.1056,0.0041
16.1083,-0.0186
16.1111,0.0012
16.1139,-0.0079
16.1167,0.0022
16.1194,-0.0032
16.1222,-0.0006
16.125,-0.014
16.1278,0.0137
16.1306,-0.0081
16.1333,0.0122
16.1361,-0.0092
16.1389,-0.0085
16.1417,-0.0157
16.1444,-0.0191
16.1472,-0.0057
16.15,-0.0068
16.1528,0.0038
16.1556,0.0041
16.1583,-0.0126
16.1611,0.0103
16.1639,-0.0124
16.1667,-0.003
16.1694,0.0069
16.1722,0.019
16.175,0.0066
16.1778,-0.0034
16.1806,0.0043
16.1833,-0.0064
16.1861,-0.0087
16.1889,0.0099
16.1917,-0.0014
16.1944,0.0078
16.1972,0.0153
16.2,0.0035
16.2028,-0.0067
16.2056,-0.0169
16.2083,-0.0099
16.2111,-0.0055
16.2139,-0.0156
16.2167,-0.0132
16.2194,0.0076
16.2222,0.0031
16.225,0.0033
16.2278,-0.0055
16.2306,0.0002
16.2333,-0.0121
16.2361,-0.006
16.2389,0.0119
16.2417,0.0205
16.2444,-0.016
16.2472,-0.0039
16.25,-0.0042
16.2528,0.0022
16.2556,0.0037
16.2583,-0.0002
16.2611,0.0073
16.2639,-0.0122
16.2667,0.0008
16.2694,-0.0192
16.2722,0.0054
16.275,0.004
16.2778,-0.0028
16.2806,-0.0212
16.2833,0.0196
16.2861,0.0066
16.2889,0.0074
16.2917,0.0014
16.2944,-0.0085
16.2972,0.0104
16.3,0.0005
16.3028,0.0015
16.3056,0.0038
16.3083,0.0031
16.3111,-0.0015
16.3139,-0.0157
16.3167,-0.0069
16.3194,0.0068
16.3222,0.0149
16.325,-0.0132
16.3278,0.0167
16.3306,0.0004
16.3333,-0.001
16.3361,0.0021
16.3389,0.0163
16.3417,0.0133
16.3444,-0.015
16.3472,-0.003
16.35,-0.0108
16.3528,-0.0059
16.3556,0.0108
16.3583,0.005
16.3611,-0.0151
16.3639,-0.0082
16.3667,-0.0134
16.3694,-0.0078
16.3722,0.001
16.375,0.008
16.3778,0.0099
16.3806,-0.0022
16.3833,-0.0026
16.3861,0.0046
16.3889,0.0017
16.3917,0.016
16.3944,-0.0034
16.3972,-0.0123
16.4,-0.0194
16.4028,-0.0189
16.4056,-0.0139
16.4083,-0.0177
16.4111,0.0017
16.4139,0.0211
16.4167,0.0059
16.4194,-0.015
16.4222,0.0008
16.425,-0.0055
16.4278,0.0006
16.4306,-0.0006
16.4333,-0.0065
16.4361,-0.0105
16.4389,0.028
16.4417,0.0057
16.4444,0.0142
16.4472,-0.0168
16.45,0.0048
16.4528,-0.0099
16.4556,-0.0081
16.4583,0.0124
16.4611,-0.0006
16.4639,-0.0168
16.4667,-0.0066
16.4694,-0.0079
16.4722,0.0329
16.475,-0.0007
16.4778,0.0174
16.4806,0.0163
16.4833,0.0213
16.4861,0.0202
16.4889,0.0179
16.4917,0.0352
16.4944,0.0459
16.4972,0.0415
16.5,0.0363
16.5028,0.0552
16.5056,0.0391
16.5083,0.051
16.5111,0.0526
16.5139,0.0543
16.5167,0.0545
16.5194,0.0618
16.5222,0.06
16.525,0.0722
16.5278,0.0611
16.5306,0.0771
16.5333,0.0732
16.5361,0.0888
16.5389,0.0752
16.5417,0.0792
16.5444,0.0698
16.5472,0.0984
16.55,0.0888
16.5528,0.0793
16.5556,0.088
16.5583,0.0695
16.5611,0.0508
16.5639,0.0674
16.5667,0.071
16.5694,0.0824
16.5722,0.0681
16.575,0.0701
16.5778,0.0847
16.5806,0.0778
16.5833,0.0727
16.5861,0.0454
16.5889,0.0578
16.5917,0.062
16.5944,0.0579
16.5972,0.0445
16.6,0.0353
16.6028,0.0448
16.6056,0.0352
16.6083,0.033
16.6111,0.0285
16.6139,0.0009
16.6167,0.0227
16.6194,0.0276
16.6222,0.0063
16.625,0.0251
16.6278,-0.0036
16.6306,0.0008
16.6333,0.0083
16.6361,-0.0081
16.6389,0.0008
16.6417,-0.0036
16.6444,-0.0053
16.6472,0.0088
16.65,-0.0006
16.6528,-0.0078
16.6556,0.0076
16.6583,0.0143
16.6611,-0.0056
16.6639,-0.0038
16.6667,0.0077
16.6694,-0.0086
16.6722,0.0087
16.675,0.0043
16.6778,0.0012
16.6806,0.0002
16.6833,-0.0123
16.6861,-0.0083
16.6889,0.0054
16.6917,0.0179
16.6944,0.0084
16.6972,-0.0228
16.7,-0.0224
16.7028,-0.0376
16.7056,-0.0364
16.7083,-0.0367
16.7111,-0.0236
16.7139,-0.0088
16.7167,0.0043
16.7194,0.1215
16.7222,0.2268
16.725,0.2968
16.7278,0.4068
16.7306,0.493
16.7333,0.5773
16.7361,0.6524
16.7389,0.6919
16.7417,0.7585
16.7444,0.7897
16.7472,0.8029
16.75,0.8014
16.7528,0.7855
16.7556,0.7775
16.7583,0.7144
16.7611,0.6635
16.7639,0.6216
16.7667,0.551
16.7694,0.4605
16.7722,0.3875
16.775,0.2814
16.7778,0.161
16.7806,0.0809
16.7833,0.005
16.7861,-0.0241
16.7889,-0.0536
16.7917,-0.0637
16.7944,-0.0885
16.7972,-0.1141
16.8,-0.1178
16.8028,-0.1193
16.8056,-0.1171
16.8083,-0.1106
16.8111,-0.0925
16.8139,-0.1067
16.8167,-0.0804
16.8194,-0.0482
16.8222,-0.03
16.825,0.0066
16.8278,-0.003
16.8306,0.0077
16.8333,-0.0209
16.8361,-0.0013
16.8389,-0.0145
16.8417,-0.0119
16.8444,0.0037
16.8472,0.0168
16.85,-0.0046
16.8528,-0.0054
16.8556,0.0027
16.8583,0.0037
16.8611,0.0023
16.8639,0.0153
16.8667,0.0025
16.8694,-0.0144
16.8722,0.0125
16.875,-0.0004
16.8778,0.0129
16.8806,-0.002
16.8833,0.0037
16.8861,-0.0054
16.8889,-0.0052
16.8917,-0.0006
16.8944,0.0124
16.8972,-0.0137
16.9,0.0061
16.9028,0.0206
16.9056,-0.0028
16.9083,0.0067
16.9111,0.0066
16.9139,-0.0051
16.9167,-0.0108
16.9194,0.0059
16.9222,-0.0238
16.925,0.0051
16.9278,0.0138
16.9306,0.0084
16.9333,-0.0244
16.9361,-0.0007
16.9389,0.0024
16.9417,0.0012
16.9444,0.0254
16.9472,0.0017
16.95,0.0457
16.9528,0.0482
16.9556,0.0393
16.9583,0.0381
16.9611,0.0381
16.9639,0.0428
16.9667,0.0681
16.9694,0.076
16.9722,0.0753
16.975,0.0761
16.9778,0.0941
16.9806,0.1032
16.9833,0.0869
16.9861,0.1154
16.9889,0.0947
16.9917,0.1082
16.9944,0.1064
16.9972,0.1252
17.0,0.1133
17.0028,0.1396
17.0056,0.1244
17.0083,0.1459
17.0111,0.1348
17.0139,0.1331
17.0167,0.1544
17.0194,0.1293
17.0222,0.1699
17.025,0.1363
17.0278,0.1352
17.0306,0.1438
17.0333,0.1515
17.0361,0.1396
17.0389,0.1424
17.0417,0.1547
17.0444,0.1576
17.0472,0.1592
17.05,0.1462
17.0528,0.1642
17.0556,0.1462
17.0583,0.1311
17.0611,0.1486
17.0639,0.1438
17.0667,0.1591
17.0694,0.1367
17.0722,0.1459
17.075,0.1405
17.0778,0.1455
17.0806,0.1188
17.0833,0.1265
17.0861,0.1385
17.0889,0.1385
17.0917,0.1101
17.0944,0.1258
17.0972,0.1109
17.1,0.0966
17.1028,0.1114
17.1056,0.1047
17.1083,0.1022
17.1111,0.0812
17.1139,0.0773
17.1167,0.0671
17.1194,0.0679
17.1222,0.0805
17.125,0.0621
17.1278,0.0626
17.1306,0.0459
17.1333,0.0445
17.1361,0.0265
17.1389,0.0321
17.1417,0.0238
17.1444,0.0362
17.1472,0.037
17.15,0.0053
17.1528,0.0128
17.1556,0.0004
17.1583,0.0158
17.1611,-0.0029
17.1639,-0.0021
17.1667,-0.0067
17.1694,-0.0028
17.1722,-0.005
17.175,0.0144
17.1778,-0.0012
17.1806,-0.0093
17.1833,0.0136
17.1861,-0.0134
17.1889,0.0009
17.1917,-0.0091
17.1944,0.0173
17.1972,0.016
17.2,-0.0044
17.2028,0.0039
17.2056,-0.0013
17.2083,-0.0125
17.2111,0.0018
17.2139,-0.0091
17.2167,-0.0114
17.2194,-0.0125
17.2222,0.0019
17.225,0.0163
17.2278,0.0084
17.2306,0.0057
17.2333,-0.0003
17.2361,-0.0085
17.2389,-0.0072
17.2417,0.0085
17.2444,0.0006
17.2472,0.0037
17.25,0.0193
17.2528,-0.0246
17.2556,-0.0156
17.2583,-0.0029
17.2611,-0.0111
17.2639,-0.0145
17.2667,-0.0037
17.2694,0.0028
17.2722,0.0124
17.275,-0.0145
17.2778,0.0097
17.2806,-0.0186
17.2833,-0.0066
17.2861,-0.0049
17.2889,-0.0137
17.2917,0.0002
17.2944,-0.003
17.2972,-0.0184
17.3,-0.0109
17.3028,-0.0005
17.3056,0.005
17.3083,-0.0031
17.3111,-0.0054
17.3139,0.0181
17.3167,-0.0054
17.3194,-0.0032
17.3222,0.0039
17.325,0.002
17.3278,-0.0072
17.3306,-0.0048
17.3333,-0.0014
17.3361,0.0085
17.3389,0.0113
17.3417,-0.0077
17.3444,0.0006
17.3472,0.0164
17.35,0.0087
17.3528,0.0124
17.3556,-0.0021
17.3583,-0.0051
17.3611,-0.0287
17.3639,-0.0012
17.3667,0.0051
17.3694,-0.0
17.3722,0.0116
17.375,-0.0152
17.3778,0.0049
17.3806,0.0003
17.3833,-0.0009
17.3861,-0.0131
17.3889,-0.0057
17.3917,-0.0001
17.3944,0.0043
17.3972,-0.0046
17.4,0.0008
17.4028,0.0057
17.4056,0.0024
17.4083,-0.006
17.4111,0.0006
17.4139,0.002
17.4167,0.01
17.4194,0.0022
17.4222,-0.022
17.425,0.0078
17.4278,0.0119
17.4306,-0.0086
17.4333,-0.0003
17.4361,-0.0046
17.4389,0.0031
17.4417,-0.0081
17.4444,-0.0187
17.4472,-0.0247
17.45,0.0017
17.4528,0.0007
17.4556,-0.0014
17.4583,0.0235
17.4611,0.0163
17.4639,0.0018
17.4667,-0.005
17.4694,-0.0126
17.4722,-0.0029
17.475,-0.0109
17.4778,-0.0025
17.4806,-0.0223
17.4833,0.0032
17.4861,-0.011
17.4889,-0.0022
17.4917,-0.0225
17.4944,-0.0077
17.4972,-0.0154
17.5,-0.006
17.5028,0.0121
17.5056,0.0067
17.5083,0.0014
17.5111,-0.0137
17.5139,-0.0067
17.5167,-0.0162
17.5194,0.0122
17.5222,-0.0014
17.525,0.0056
17.5278,-0.0093
17.5306,-0.0044
17.5333,0.0011
17.5361,0.0084
17.5389,0.0097
17.5417,0.0217
17.5444,-0.0126
17.5472,0.0182
17.55,0.0095
17.5528,0.0057
17.5556,-0.0066
17.5583,-0.0053
17.5611,-0.001
17.5639,-0.0025
17.5667,0.0111
17.5694,0.0176
17.5722,-0.0071
17.575,0.0106
17.5778,-0.0067
17.5806,-0.0022
17.5833,0.0256
17.5861,0.0067
17.5889,0.0382
17.5917,0.0156
17.5944,0.0347
17.5972,0.0043
17.6,0.0331
17.6028,0.037
17.6056,0.0251
17.6083,0.0391
17.6111,0.039
17.6139,0.0501
17.6167,0.0476
17.6194,0.0478
17.6222,0.0551
17.625,0.0526
17.6278,0.0739
17.6306,0.0539
17.6333,0.0615
17.6361,0.0719
17.6389,0.057
17.6417,0.0599
17.6444,0.0816
17.6472,0.0827
17.65,0.0858
17.6528,0.0703
17.6556,0.0711
17.6583,0.084
17.6611,0.0735
17.6639,0.0835
17.6667,0.0784
17.6694,0.0823
17.6722,0.0667
17.675,0.0654
17.6778,0.0766
17.6806,0.0935
17.6833,0.075
17.6861,0.0693
17.6889,0.0769
17.6917,0.0611
17.6944,0.0576
17.6972,0.0532
17.7,0.0594
17.7028,0.0604
17.7056,0.0556
17.7083,0.0657
17.7111,0.0362
17.7139,0.031
17.7167,0.0573
17.7194,0.033
17.7222,0.0253
17.725,0.0276
17.7278,0.0396
17.7306,0.0174
17.7333,0.0123
17.7361,0.0245
17.7389,0.0076
17.7417,-0.0003
17.7444,-0.005
17.7472,0.0165
17.75,0.0166
17.7528,-0.0032
17.7556,0.0142
17.7583,0.0068
17.7611,0.0095
17.7639,0.014
17.7667,0.0039
17.7694,-0.0007
17.7722,0.0027
17.775,-0.0044
17.7778,-0.0111
17.7806,0.0141
17.7833,-0.0024
17.7861,-0.002
17.7889,0.0014
17.7917,-0.0035
17.7944,0.0082
17.7972,-0.0244
17.8,0.0045
17.8028,-0.0141
17.8056,-0.0079
17.8083,-0.014
17.8111,0.0097
17.8139,0.0067
17.8167,-0.0072
17.8194,-0.0214
17.8222,-0.0344
17.825,-0.05
17.8278,-0.0578
17.8306,-0.0504
17.8333,-0.0261
17.8361,-0.0199
17.8389,0.0137
17.8417,0.1006
17.8444,0.2024
17.8472,0.3098
17.85,0.3972
17.8528,0.472
17.8556,0.5538
17.8583,0.6148
17.8611,0.6794
17.8639,0.7154
17.8667,0.7427
17.8694,0.786
17.8722,0.8095
17.875,0.8072
17.8778,0.7859
17.8806,0.7812
17.8833,0.7417
17.8861,0.6812
17.8889,0.6255
17.8917,0.564
17.8944,0.491
17.8972,0.4121
17.9,0.3114
17.9028,0.2066
17.9056,0.1265
17.9083,0.0254
17.9111,-0.0073
17.9139,-0.0413
17.9167,-0.046
17.9194,-0.0985
17.9222,-0.0797
17.925,-0.1058
17.9278,-0.1326
17.9306,-0.1236
17.9333,-0.1326
17.9361,-0.1159
17.9389,-0.1124
17.9417,-0.1123
17.9444,-0.0775
17.9472,-0.0809
17.95,-0.0401
17.9528,-0.0065
17.9556,0.0009
17.9583,-0.0159
17.9611,-0.0012
17.9639,-0.0247
17.9667,0.0006
17.9694,-0.0085
17.9722,0.0163
17.975,-0.0062
17.9778,0.0188
17.9806,0.013
17.9833,-0.0117
17.9861,0.0084
17.9889,0.0158
17.9917,-0.0161
17.9944,-0.0077
17.9972,-0.0152
18.0,0.0073
18.0028,-0.0066
18.0056,0.0053
18.0083,0.0113
18.0111,0.0064
18.0139,-0.015
18.0167,-0.0041
18.0194,0.0127
18.0222,-0.0041
18.025,-0.0194
18.0278,0.0106
18.0306,-0.008
18.0333,-0.0143
18.0361,-0.0083
18.0389,-0.0005
18.0417,0.0114
18.0444,-0.0255
18.0472,-0.0155
18.05,-0.0033
18.0528,-0.0215
18.0556,0.0052
18.0583,0.0021
18.0611,-0.0013
18.0639,0.0114
18.0667,0.0019
18.0694,-0.0086
18.0722,-0.0053
18.075,-0.0097
18.0778,0.019
18.0806,0.0165
18.0833,0.0174
18.0861,0.0259
18.0889,0.0325
18.0917,0.0364
18.0944,0.0324
18.0972,0.0349
18.1,0.0598
18.1028,0.0453
18.1056,0.041
18.1083,0.0767
18.1111,0.0564
18.1139,0.0717
18.1167,0.0693
18.1194,0.0956
18.1222,0.0772
18.125,0.0981
18.1278,0.0987
18.1306,0.0888
18.1333,0.1166
18.1361,0.112
18.1389,0.1205
18.1417,0.11
18.1444,0.1376
18.1472,0.1521
18.15,0.1342
18.1528,0.1405
18.1556,0.1436
18.1583,0.1472
18.1611,0.1289
18.1639,0.1281
18.1667,0.1583
18.1694,0.1441
18.1722,0.1376
18.175,0.147
18.1778,0.1583
18.1806,0.1529
18.1833,0.1591
18.1861,0.1624
18.1889,0.1366
18.1917,0.1632
18.1944,0.1412
18.1972,0.1476
18.2,0.15
18.2028,0.1367
18.2056,0.1415
18.2083,0.1316
18.2111,0.1446
18.2139,0.1473
18.2167,0.1492
18.2194,0.1431
18.2222,0.1224
18.225,0.1349
18.2278,0.1288
18.2306,0.1281
18.2333,0.1307
18.2361,0.1385
18.2389,0.1265
18.2417,0.12
18.2444,0.0979
18.2472,0.1035
18.25,0.0991
18.2528,0.1021
18.2556,0.0854
18.2583,0.1037
18.2611,0.1034
18.2639,0.0895
18.2667,0.0957
18.2694,0.0765
18.2722,0.0681
18.275,0.0576
18.2778,0.0632
18.2806,0.0507
18.2833,0.0452
18.2861,0.0488
18.2889,0.0299
18.2917,0.0311
18.2944,0.0023
18.2972,0.0269
18.3,0.037
18.3028,0.0022
18.3056,0.0238
18.3083,0.0103
18.3111,-0.0067
18.3139,0.0025
18.3167,-0.0059
18.3194,-0.002
18.3222,-0.0152
18.325,-0.0089
18.3278,0.0049
18.3306,-0.0133
18.3333,0.0162
18.3361,-0.0169
18.3389,-0.0027
18.3417,0.0267
18.3444,0.0084
18.3472,-0.01
18.35,-0.0026
18.3528,-0.0056
18.3556,-0.0165
18.3583,-0.0024
18.3611,-0.0003
18.3639,0.0013
18.3667,0.0022
18.3694,0.0099
18.3722,0.0013
18.375,-0.0036
18.3778,-0.0081
18.3806,-0.0097
18.3833,0.0046
18.3861,0.015
18.3889,-0.0026
18.3917,0.0058
18.3944,-0.0184
18.3972,-0.0122
18.4,0.0207
18.4028,0.0084
18.4056,-0.0034
18.4083,-0.0059
18.4111,0.0063
18.4139,-0.0003
18.4167,0.0142
18.4194,0.0117
18.4222,-0.0167
18.425,0.0162
18.4278,-0.0046
18.4306,0.0024
18.4333,-0.0048
18.4361,0.0106
18.4389,-0.0042
18.4417,-0.0131
18.4444,-0.0067
18.4472,0.007
18.45,-0.0194
18.4528,0.0072
18.4556,0.0136
18.4583,0.001
18.4611,-0.0019
18.4639,-0.0163
18.4667,-0.0088
18.4694,0.0152
18.4722,-0.0035
18.475,0.0165
18.4778,-0.0116
18.4806,-0.0023
18.4833,0.0056
18.4861,-0.0092
18.4889,0.0201
18.4917,0.0014
18.4944,-0.0041
18.4972,-0.0168
18.5,0.0152
18.5028,0.0159
18.5056,0.0052
18.5083,0.0022
18.5111,-0.0123
18.5139,-0.0069
18.5167,0.0014
18.5194,0.028
18.5222,0.0181
18.525,0.0032
18.5278,0.0198
18.5306,0.0223
18.5333,-0.0062
18.5361,0.0023
18.5389,0.0012
18.5417,0.0006
18.5444,0.0089
18.5472,0.0164
18.55,0.0031
18.5528,-0.006
18.5556,0.008
18.5583,0.0046
18.5611,0.02
18.5639,0.0142
18.5667,-0.0109
18.5694,-0.0096
18.5722,0.0059
18.575,-0.0163
18.5778,-0.0125
18.5806,-0.0001
18.5833,0.0023
18.5861,-0.0077
18.5889,0.0114
18.5917,0.0014
18.5944,-0.0073
18.5972,-0.0046
18.6,0.0029
18.6028,-0.0308
18.6056,-0.0068
18.6083,0.001
18.6111,-0.0002
18.6139,-0.0127
18.6167,-0.0177
18.6194,0.0077
18.6222,-0.0062
18.625,-0.0087
18.6278,0.0024
18.6306,0.0093
18.6333,-0.0074
18.6361,0.0026
18.6389,-0.0041
18.6417,-0.0098
18.6444,-0.0169
18.6472,0.0047
18.65,0.0034
18.6528,0.0003
18.6556,-0.0093
18.6583,0.0053
18.6611,0.0017
18.6639,-0.0125
18.6667,0.0167
18.6694,-0.0078
18.6722,0.0098
18.675,-0.0081
18.6778,-0.0155
18.6806,-0.0032
18.6833,-0.0021
18.6861,0.0197
18.6889,-0.0016
18.6917,-0.0186
18.6944,0.0048
18.6972,0.0009
18.7,0.0036
18.7028,-0.0103
18.7056,-0.0101
18.7083,0.0067
18.7111,0.001
18.7139,-0.0065
18.7167,-0.0082
18.7194,0.0163
18.7222,-0.0089
18.725,-0.0014
18.7278,0.0001
18.7306,-0.0026
18.7333,0.007
18.7361,-0.0054
18.7389,-0.0045
18.7417,-0.0079
18.7444,0.0038
18.7472,0.0087
18.75,0.0152
18.7528,0.0064
18.7556,-0.0078
18.7583,0.0205
18.7611,-0.004
18.7639,0.0359
18.7667,0.0278
18.7694,0.0298
18.7722,0.0337
18.775,0.0294
18.7778,0.0425
18.7806,0.0593
18.7833,0.0385
18.7861,0.0443
18.7889,0.0678
18.7917,0.0578
18.7944,0.0667
18.7972,0.0509
18.8,0.063
18.8028,0.0684
18.8056,0.0649
18.8083,0.0618
18.8111,0.0825
18.8139,0.0592
18.8167,0.0778
18.8194,0.0778
18.8222,0.0687
18.825,0.0667
18.8278,0.088
18.8306,0.0795
18.8333,0.0724
18.8361,0.0821
18.8389,0.0791
18.8417,0.0743
18.8444,0.0606
18.8472,0.0766
18.85,0.0694
18.8528,0.1038
18.8556,0.0735
18.8583,0.0674
18.8611,0.0627
18.8639,0.0615
18.8667,0.05
18.8694,0.0638
18.8722,0.0613
18.875,0.044
18.8778,0.0373
18.8806,0.0302
18.8833,0.0395
18.8861,0.0344
18.8889,0.032
18.8917,0.0306
18.8944,0.0234
18.8972,0.0283
18.9,0.0243
18.9028,0.0031
18.9056,0.0054
18.9083,0.0007
18.9111,0.0076
18.9139,0.0051
18.9167,-0.0034
18.9194,0.0178
18.9222,-0.0075
18.925,-0.0136
18.9278,-0.0039
18.9306,0.0129
18.9333,0.0173
18.9361,0.0165
18.9389,0.0052
18.9417,0.0067
18.9444,0.0065
18.9472,-0.0025
18.95,-0.0079
18.9528,0.0042
18.9556,-0.011
18.9583,-0.0013
18.9611,0.0098
18.9639,-0.0066
18.9667,-0.003
18.9694,0.0045
18.9722,-0.0065
18.975,0.0008
18.9778,0.0041
18.9806,-0.0071
18.9833,-0.0302
18.9861,-0.0465
18.9889,-0.0194
18.9917,-0.0337
18.9944,-0.0321
18.9972,-0.0368
19.0,-0.0074
19.0028,0.0346
19.0056,0.1131
19.0083,0.2004
19.0111,0.296
19.0139,0.4258
19.0167,0.4857
19.0194,0.5652
19.0222,0.6286
19.025,0.688
19.0278,0.7166
19.0306,0.7499
19.0333,0.7926
19.0361,0.7996
19.0389,0.7982
19.0417,0.7516
19.0444,0.7472
19.0472,0.7099
19.05,0.6632
19.0528,0.6069
19.0556,0.5118
19.0583,0.4492
19.0611,0.3399
19.0639,0.2405
19.0667,0.1619
19.0694,0.0507
19.0722,-0.0111
19.075,-0.0432
19.0778,-0.0713
19.0806,-0.0647
19.0833,-0.0873
19.0861,-0.1087
19.0889,-0.1086
19.0917,-0.1235
19.0944,-0.123
19.0972,-0.1272
19.1,-0.1027
19.1028,-0.0927
19.1056,-0.0618
19.1083,-0.082
19.1111,-0.0508
19.1139,-0.0171
19.1167,0.0092
19.1194,-0.0018
19.1222,-0.0049
19.125,-0.001
19.1278,0.0069
19.1306,0.005
19.1333,-0.0063
19.1361,-0.0021
19.1389,-0.0067
19.1417,-0.0014
19.1444,-0.0146
19.1472,-0.0146
19.15,-0.0052
19.1528,0.0002
19.1556,-0.0038
19.1583,-0.013
19.1611,0.0059
19.1639,-0.0037
19.1667,0.0149
19.1694,0.0296
19.1722,0.0094
19.175,0.006
19.1778,0.0203
19.1806,0.0004
19.1833,-0.0115
19.1861,-0.0011
19.1889,0.0094
19.1917,0.0128
19.1944,0.0077
19.1972,0.0041
19.2,-0.0038
19.2028,-0.0077
19.2056,0.002
19.2083,0.0212
19.2111,-0.0038
19.2139,0.0113
19.2167,-0.006
19.2194,0.0081
19.2222,-0.0078
19.225,-0.0174
19.2278,-0.008
19.2306,-0.0005
19.2333,-0.0016
19.2361,0.0192
19.2389,0.0184
19.2417,0.019
19.2444,0.0324
19.2472,0.0312
19.25,0.0185
19.2528,0.0377
19.2556,0.0586
19.2583,0.0518
19.2611,0.0685
19.2639,0.0869
19.2667,0.0695
19.2694,0.0796
19.2722,0.0869
19.275,0.0847
19.2778,0.0939
19.2806,0.1019
19.2833,0.1013
19.2861,0.0944
19.2889,0.1068
19.2917,0.1117
19.2944,0.1386
19.2972,0.1183
19.3,0.1343
19.3028,0.126
19.3056,0.1367
19.3083,0.1379
19.3111,0.1462
19.3139,0.1318
19.3167,0.1295
19.3194,0.123
19.3222,0.1651
19.325,0.1378
19.3278,0.1433
19.3306,0.1654
19.3333,0.135
19.3361,0.15
19.3389,0.1591
19.3417,0.1399
19.3444,0.1515
19.3472,0.1551
19.35,0.1525
19.3528,0.1511
19.3556,0.166
19.3583,0.1467
19.3611,0.1442
19.3639,0.1392
19.3667,0.1533
19.3694,0.1494
19.3722,0.1397
19.375,0.1291
19.3778,0.1358
19.3806,0.1421
19.3833,0.1342
19.3861,0.1409
19.3889,0.1328
19.3917,0.1415
19.3944,0.1105
19.3972,0.1162
19.4,0.1075
19.4028,0.1077
19.4056,0.1049
19.4083,0.1026
19.4111,0.0912
19.4139,0.0955
19.4167,0.0884
19.4194,0.0716
19.4222,0.0664
19.425,0.0845
19.4278,0.06
19.4306,0.0571
19.4333,0.0674
19.4361,0.0516
19.4389,0.0556
19.4417,0.0324
19.4444,0.0417
19.4472,0.0346
19.45,0.0202
19.4528,0.0144
19.4556,0.0115
19.4583,0.0079
19.4611,0.0025
19.4639,-0.0073
19.4667,-0.0045
19.4694,-0.0161
19.4722,-0.0096
19.475,0.0237
19.4778,-0.0064
19.4806,0.0151
19.4833,-0.0014
19.4861,0.0073
19.4889,-0.0182
19.4917,-0.0056
19.4944,0.0039
19.4972,-0.0004
19.5,0.005
19.5028,-0.0049
19.5056,-0.0256
19.5083,0.0087
19.5111,-0.0065
19.5139,0.0023
19.5167,0.0247
19.5194,-0.0039
19.5222,-0.0193
19.525,-0.0063
19.5278,-0.0141
19.5306,0.0087
19.5333,-0.005
19.5361,0.0033
19.5389,0.0155
19.5417,0.0145
19.5444,0.0031
19.5472,0.0092
19.55,0.0135
19.5528,-0.0062
19.5556,0.004
19.5583,0.0011
19.5611,-0.0026
19.5639,-0.0073
19.5667,0.0024
19.5694,-0.0032
19.5722,-0.0087
19.575,0.003
19.5778,0.0026
19.5806,-0.0122
19.5833,-0.0117
19.5861,-0.0064
19.5889,0.0008
19.5917,-0.0218
19.5944,-0.0056
19.5972,-0.0035
19.6,-0.009
19.6028,-0.0009
19.6056,0.0203
19.6083,0.0061
19.6111,-0.0026
19.6139,0.0035
19.6167,-0.0017
19.6194,0.0186
19.6222,0.0127
19.625,-0.0077
19.6278,-0.0174
19.6306,0.0098
19.6333,0.0111
19.6361,-0.003
19.6389,-0.0023
19.6417,0.0018
19.6444,0.0034
19.6472,-0.002
19.65,0.0062
19.6528,0.0017
19.6556,-0.0024
19.6583,0.0048
19.6611,-0.0044
19.6639,-0.0063
19.6667,0.0018
19.6694,0.006
19.6722,-0.0273
19.675,-0.0064
19.6778,-0.0027
19.6806,0.0134
19.6833,0.0077
19.6861,0.0107
19.6889,0.0127
19.6917,0.0026
19.6944,0.0051
19.6972,-0.0049
19.7,-0.0102
19.7028,-0.0031
19.7056,-0.0135
19.7083,-0.0053
19.7111,0.0016
19.7139,0.0063
19.7167,-0.0063
19.7194,-0.0066
19.7222,0.0096
19.725,-0.0024
19.7278,-0.0085
19.7306,0.0151
19.7333,0.0118
19.7361,0.0139
19.7389,-0.0058
19.7417,0.0169
19.7444,0.0023
19.7472,0.0024
19.75,0.0115
19.7528,-0.0059
19.7556,0.0133
19.7583,-0.0095
19.7611,0.0146
19.7639,-0.0095
19.7667,0.0114
19.7694,-0.0099
19.7722,0.0007
19.775,-0.001
19.7778,0.0025
19.7806,0.0048
19.7833,-0.0292
19.7861,0.0055
19.7889,-0.0069
19.7917,-0.0025
19.7944,-0.0037
19.7972,-0.0024
19.8,-0.004
19.8028,-0.0069
19.8056,-0.0014
19.8083,-0.0123
19.8111,-0.0086
19.8139,0.0099
19.8167,-0.0107
19.8194,0.0051
19.8222,0.0065
19.825,0.0107
19.8278,-0.0043
19.8306,-0.0065
19.8333,0.012
19.8361,-0.0015
19.8389,0.0029
19.8417,-0.008
19.8444,-0.0034
19.8472,0.0042
19.85,0.0068
19.8528,-0.005
19.8556,-0.0131
19.8583,-0.0071
19.8611,-0.008
19.8639,0.0103
19.8667,-0.0057
19.8694,0.0126
19.8722,-0.0002
19.875,-0.0008
19.8778,0.0127
19.8806,0.0029
19.8833,-0.0034
19.8861,-0.0111
19.8889,-0.0116
19.8917,0.0315
19.8944,0.0195
19.8972,0.006
19.9,0.0089
19.9028,0.0293
19.9056,0.0336
19.9083,0.0395
19.9111,0.0474
19.9139,0.0447
19.9167,0.0427
19.9194,0.055
19.9222,0.0597
19.925,0.0617
19.9278,0.0684
19.9306,0.0767
19.9333,0.0923
19.9361,0.0756
19.9389,0.0686
19.9417,0.0698
19.9444,0.0809
19.9472,0.0862
19.95,0.0719
19.9528,0.0723
19.9556,0.1019
19.9583,0.0719
19.9611,0.0751
19.9639,0.1028
19.9667,0.0781
19.9694,0.0826
19.9722,0.0729
19.975,0.0753
19.9778,0.0693
19.9806,0.0692
19.9833,0.0708
19.9861,0.067
19.9889,0.0753
19.9917,0.0781
19.9944,0.045
19.9972,0.0671
20.0,0.0565
20.0028,0.0531
20.0056,0.0378
20.0083,0.0695
20.0111,0.0297
20.0139,0.0286
20.0167,0.0333
20.0194,0.036
20.0222,0.008
20.025,-0.0006
20.0278,0.0264
20.0306,-0.0056
20.0333,-0.0067
20.0361,0.0033
20.0389,-0.001
20.0417,0.009
20.0444,-0.0047
20.0472,0.0043
20.05,-0.0014
20.0528,0.0089
20.0556,0.0136
20.0583,-0.0058
20.0611,-0.0099
20.0639,-0.0011
20.0667,0.008
20.0694,-0.0075
20.0722,0.0045
20.075,0.001
20.0778,-0.0108
20.0806,0.011
20.0833,0.0038
20.0861,-0.0107
20.0889,-0.0035
20.0917,0.0005
20.0944,-0.0033
20.0972,0.001
20.1,-0.006
20.1028,-0.0314
20.1056,-0.0252
20.1083,-0.0324
20.1111,-0.0403
20.1139,-0.0358
20.1167,-0.0411
20.1194,-0.005
20.1222,0.0231
20.125,0.1282
20.1278,0.2263
20.1306,0.3233
20.1333,0.4113
20.1361,0.5
20.1389,0.5984
20.1417,0.6544
20.1444,0.7162
20.1472,0.764
20.15,0.7766
20.1528,0.798
20.1556,0.8138
20.1583,0.7889
20.1611,0.7537
20.1639,0.7218
20.1667,0.6578
20.1694,0.5928
20.1722,0.5069
20.175,0.4129
20.1778,0.3237
20.1806,0.2339
20.1833,0.1139
20.1861,-0.0042
20.1889,-0.0287
20.1917,-0.0602
20.1944,-0.0545
20.1972,-0.0933
20.2,-0.1004
20.2028,-0.0978
20.2056,-0.1291
20.2083,-0.1028
20.2111,-0.1179
20.2139,-0.1069
20.2167,-0.1005
20.2194,-0.0834
20.2222,-0.0565
20.225,-0.0374
20.2278,-0.0153
20.2306,-0.0037
20.2333,-0.0078
20.2361,-0.0121
20.2389,0.0058
20.2417,0.0125
20.2444,-0.0121
20.2472,0.0123
20.25,-0.0119
20.2528,-0.0028
20.2556,-0.0116
20.2583,-0.0189
20.2611,-0.0105
20.2639,0.006
20.2667,0.0103
20.2694,-0.0075
20.2722,-0.0009
20.275,-0.0102
20.2778,-0.0029
20.2806,0.0106
20.2833,0.0136
20.2861,-0.003
20.2889,0.0027
20.2917,-0.0008
20.2944,-0.014
20.2972,-0.0045
20.3,0.0103
20.3028,-0.0075
20.3056,0.0056
20.3083,-0.0032
20.3111,-0.0031
20.3139,-0.0141
20.3167,0.0102
20.3194,-0.0194
20.3222,-0.0022
20.325,0.0061
20.3278,-0.0032
20.3306,0.002
20.3333,0.0058
20.3361,-0.0101
20.3389,0.0056
20.3417,-0.0115
20.3444,0.0213
20.3472,0.0021
20.35,0.0182
20.3528,0.0379
20.3556,0.0556
20.3583,0.052
20.3611,0.0621
20.3639,0.0555
20.3667,0.0544
20.3694,0.0719
20.3722,0.0792
20.375,0.0786
20.3778,0.0842
20.3806,0.0973
20.3833,0.0895
20.3861,0.1036
20.3889,0.0914
20.3917,0.1029
20.3944,0.1282
20.3972,0.1108
20.4,0.1195
20.4028,0.1279
20.4056,0.1208
20.4083,0.1275
20.4111,0.1256
20.4139,0.1389
20.4167,0.1323
20.4194,0.1498
20.4222,0.1524
20.425,0.1315
20.4278,0.1531
20.4306,0.1384
20.4333,0.1501
20.4361,0.1558
20.4389,0.1447
20.4417,0.1527
20.4444,0.1549
20.4472,0.1538
20.45,0.1419
20.4528,0.1613
20.4556,0.1447
20.4583,0.135
20.4611,0.1578
20.4639,0.1397
20.4667,0.1345
20.4694,0.1438
20.4722,0.1235
20.475,0.1356
20.4778,0.1305
20.4806,0.1146
20.4833,0.1222
20.4861,0.1342
20.4889,0.1049
20.4917,0.0985
20.4944,0.117
20.4972,0.1065
20.5,0.1139
20.5028,0.1031
20.5056,0.0908
20.5083,0.0811
20.5111,0.0767
20.5139,0.0524
20.5167,0.0657
20.5194,0.0878
20.5222,0.0644
20.525,0.0642
20.5278,0.0483
20.5306,0.0408
20.5333,0.0212
20.5361,0.0237
20.5389,0.0282
20.5417,0.0257
20.5444,0.0226
20.5472,0.0161
20.55,-0.0051
20.5528,0.0006
20.5556,-0.0065
20.5583,0.0057
20.5611,-0.0011
20.5639,0.0062
20.5667,-0.0154
20.5694,0.0082
20.5722,0.0092
20.575,0.0136
20.5778,0.0015
20.5806,0.0018
20.5833,0.0132
20.5861,-0.0049
20.5889,0.0026
20.5917,0.0006
20.5944,0.01
20.5972,0.0013
20.6,0.0178
20.6028,0.0132
20.6056,0.0142
20.6083,-0.0061
20.6111,0.0068
20.6139,-0.0077
20.6167,0.008
20.6194,-0.0135
20.6222,0.0047
20.625,0.0075
20.6278,-0.0015
20.6306,-0.0001
20.6333,0.0114
20.6361,-0.0067
20.6389,0.0093
20.6417,-0.0036
20.6444,0.0004
20.6472,0.0137
20.65,0.0049
20.6528,0.0026
20.6556,-0.0077
20.6583,-0.0063
20.6611,0.0057
20.6639,-0.0117
20.6667,-0.0167
20.6694,0.0155
20.6722,-0.0106
20.675,0.0044
20.6778,-0.0094
20.6806,-0.0137
20.6833,0.0
20.6861,-0.0198
20.6889,-0.0252
20.6917,-0.03
20.6944,-0.0079
20.6972,-0.0211
20.7,-0.022
20.7028,-0.0106
20.7056,0.0105
20.7083,0.0047
20.7111,0.0031
20.7139,-0.0001
20.7167,-0.0026
20.7194,-0.0016
20.7222,-0.0039
20.725,0.0027
20.7278,0.0133
20.7306,-0.001
20.7333,-0.0001
20.7361,0.0225
20.7389,0.0235
20.7417,0.0059
20.7444,0.0166
20.7472,0.0068
20.75,-0.0115
20.7528,0.0181
20.7556,-0.0024
20.7583,-0.0034
20.7611,0.0008
20.7639,-0.0001
20.7667,-0.0037
20.7694,0.0046
20.7722,0.0019
20.775,0.021
20.7778,-0.0017
20.7806,0.0056
20.7833,0.013
20.7861,-0.0122
20.7889,0.0081
20.7917,-0.006
20.7944,0.0151
20.7972,-0.0184
20.8,0.0173
20.8028,-0.0018
20.8056,0.0127
20.8083,0.0031
20.8111,-0.0008
20.8139,-0.0026
20.8167,-0.0256
20.8194,0.0027
20.8222,0.0032
20.825,-0.008
20.8278,-0.0159
20.8306,0.0038
20.8333,0.0132
20.8361,0.0086
20.8389,0.0173
20.8417,-0.0156
20.8444,0.0033
20.8472,0.004
20.85,-0.0144
20.8528,0.0173
20.8556,-0.0126
20.8583,-0.0034
20.8611,0.0004
20.8639,0.0281
20.8667,0.0032
20.8694,0.0104
20.8722,-0.0016
20.875,0.0038
20.8778,0.0032
20.8806,0.0133
20.8833,0.0097
20.8861,0.0076
20.8889,-0.0087
20.8917,0.007
20.8944,0.0157
20.8972,-0.0014
20.9,-0.0223
20.9028,0.0036
20.9056,0.0104
20.9083,-0.0071
20.9111,0.0026
20.9139,0.0021
20.9167,0.0083
20.9194,-0.0146
20.9222,-0.0012
20.925,-0.0005
20.9278,-0.0111
20.9306,-0.0153
20.9333,0.0025
20.9361,-0.0154
20.9389,0.0218
20.9417,0.0072
20.9444,-0.0097
20.9472,0.0091
20.95,-0.0055
20.9528,0.0153
20.9556,0.0046
20.9583,-0.0023
20.9611,0.0136
20.9639,0.0072
20.9667,0.0118
20.9694,0.0256
20.9722,0.0201
20.975,0.0511
20.9778,0.0437
20.9806,0.0598
20.9833,0.0692
20.9861,0.0593
20.9889,0.0448
20.9917,0.0521
20.9944,0.0748
20.9972,0.0853
21.0,0.0782
21.0028,0.0827
21.0056,0.0551
21.0083,0.0773
21.0111,0.065
21.0139,0.0611
21.0167,0.0818
21.0194,0.0806
21.0222,0.083
21.025,0.0852
21.0278,0.0868
21.0306,0.0816
21.0333,0.0709
21.0361,0.0759
21.0389,0.0727
21.0417,0.0714
21.0444,0.0733
21.0472,0.0781
21.05,0.0512
21.0528,0.0626
21.0556,0.0441
21.0583,0.0592
21.0611,0.0503
21.0639,0.0621
21.0667,0.0645
21.0694,0.0397
21.0722,0.0364
21.075,0.0176
21.0778,0.0354
21.0806,0.0317
21.0833,0.0319
21.0861,0.0077
21.0889,0.0057
21.0917,0.0098
21.0944,0.0093
21.0972,-0.0218
21.1,-0.0053
21.1028,-0.0011
21.1056,-0.0066
21.1083,-0.0075
21.1111,0.01
21.1139,-0.0041
21.1167,0.0007
21.1194,0.0159
21.1222,0.0018
21.125,-0.0053
21.1278,0.0027
21.1306,-0.0006
21.1333,0.0025
21.1361,0.0066
21.1389,0.0115
21.1417,-0.0084
21.1444,-0.0068
21.1472,0.0051
21.15,-0.0131
21.1528,-0.0079
21.1556,0.0132
21.1583,-0.0116
21.1611,-0.0213
21.1639,-0.0451
21.1667,-0.0562
21.1694,-0.0274
21.1722,-0.0144
21.175,0.0024
21.1778,0.0926
21.1806,0.2289
21.1833,0.3147
21.1861,0.4222
21.1889,0.507
21.1917,0.602
21.1944,0.6603
21.1972,0.7343
21.2,0.7661
21.2028,0.8016
21.2056,0.8002
21.2083,0.8016
21.2111,0.7578
21.2139,0.7322
21.2167,0.688
21.2194,0.5969
21.2222,0.5284
21.225,0.4315
21.2278,0.34
21.2306,0.2254
21.2333,0.0998
21.2361,-0.0059
21.2389,-0.0333
21.2417,-0.0654
21.2444,-0.0587
21.2472,-0.0733
21.25,-0.0949
21.2528,-0.1249
21.2556,-0.101
21.2583,-0.1173
21.2611,-0.1158
21.2639,-0.1136
21.2667,-0.0741
21.2694,-0.0471
21.2722,-0.0346
21.275,-0.0181
21.2778,-0.0001
21.2806,-0.0001
21.2833,-0.0096
21.2861,0.0063
21.2889,0.0024
21.2917,-0.0017
21.2944,-0.0048
21.2972,-0.0114
21.3,-0.0044
21.3028,0.0129
21.3056,0.0028
21.3083,-0.0002
21.3111,0.0107
21.3139,0.012
21.3167,0.0044
21.3194,0.0104
21.3222,0.0068
21.325,0.003
21.3278,0.0128
21.3306,0.0048
21.3333,-0.0075
21.3361,-0.0026
21.3389,0.0147
21.3417,-0.0113
21.3444,0.0005
21.3472,-0.008
21.35,0.0143
21.3528,0.01
21.3556,0.0105
21.3583,-0.0163
21.3611,-0.0221
21.3639,0.0208
21.3667,0.0068
21.3694,0.0088
21.3722,0.0056
21.375,-0.0037
21.3778,-0.0132
21.3806,-0.0016
21.3833,0.0168
21.3861,0.0246
21.3889,0.0263
21.3917,0.0396
21.3944,0.0366
21.3972,0.0626
21.4,0.0629
21.4028,0.0513
21.4056,0.0643
21.4083,0.0703
21.4111,0.0849
21.4139,0.0741
21.4167,0.1012
21.4194,0.1029
21.4222,0.0976
21.425,0.0922
21.4278,0.1226
21.4306,0.1133
21.4333,0.1055
21.4361,0.1286
21.4389,0.1182
21.4417,0.1103
21.4444,0.1179
21.4472,0.1429
21.45,0.1699
21.4528,0.1264
21.4556,0.1442
21.4583,0.1332
21.4611,0.1268
21.4639,0.1319
21.4667,0.1437
21.4694,0.1399
21.4722,0.1364
21.475,0.1644
21.4778,0.1533
21.4806,0.1448
21.4833,0.1618
21.4861,0.143
21.4889,0.149
21.4917,0.1358
21.4944,0.1493
21.4972,0.1335
21.5,0.1319
21.5028,0.1439
21.5056,0.1338
21.5083,0.1253
21.5111,0.1426
21.5139,0.138
21.5167,0.1246
21.5194,0.1221
21.5222,0.0976
21.525,0.1036
21.5278,0.1152
21.5306,0.1139
21.5333,0.1145
21.5361,0.0988
21.5389,0.0957
21.5417,0.0916
21.5444,0.067
21.5472,0.0677
21.55,0.0707
21.5528,0.0657
21.5556,0.0526
21.5583,0.0465
21.5611,0.0562
21.5639,0.0314
21.5667,0.0184
21.5694,0.0261
21.5722,0.0296
21.575,0.0046
21.5778,-0.0063
21.5806,-0.0053
21.5833,-0.0016
21.5861,-0.0069
21.5889,0.005
21.5917,0.0086
21.5944,-0.0142
21.5972,0.0032
21.6,0.0051
21.6028,0.0183
21.6056,-0.0
21.6083,0.0018
21.6111,-0.002
21.6139,-0.008
21.6167,-0.0113
21.6194,0.0023
21.6222,-0.0064
21.625,-0.0042
21.6278,-0.0014
21.6306,-0.0016
21.6333,0.0202
21.6361,-0.0111
21.6389,0.0224
21.6417,-0.0079
21.6444,-0.0129
21.6472,0.0139
21.65,0.0037
21.6528,0.0019
21.6556,-0.0091
21.6583,-0.0004
21.6611,-0.0077
21.6639,-0.0242
21.6667,0.0277
21.6694,0.0018
21.6722,-0.0114
21.675,0.0159
21.6778,0.0016
21.6806,-0.0064
21.6833,-0.0053
21.6861,0.015
21.6889,0.0006
21.6917,0.0033
21.6944,0.002
21.6972,-0.0059
21.7,-0.0039
21.7028,0.0017
21.7056,0.0107
21.7083,-0.0082
21.7111,0.0104
21.7139,-0.0078
21.7167,-0.0123
21.7194,0.0034
21.7222,-0.0093
21.725,0.012
21.7278,0.0066
21.7306,-0.0104
21.7333,0.0052
21.7361,0.0034
21.7389,0.0058
21.7417,0.0114
21.7444,-0.0019
21.7472,0.0088
21.75,0.0074
21.7528,0.0012
21.7556,0.0184
21.7583,0.0043
21.7611,0.0073
21.7639,0.0046
21.7667,0.0015
21.7694,-0.001
21.7722,-0.0169
21.775,-0.0046
21.7778,-0.0065
21.7806,-0.0084
21.7833,-0.0008
21.7861,0.0112
21.7889,-0.0172
21.7917,-0.0089
21.7944,-0.0017
21.7972,-0.0041
21.8,-0.0025
21.8028,-0.0115
21.8056,0.0015
21.8083,0.015
21.8111,0.0195
21.8139,0.0189
21.8167,0.0012
21.8194,0.0051
21.8222,-0.0042
21.825,0.0113
21.8278,0.0125
21.8306,-0.0102
21.8333,-0.0188
21.8361,0.0063
21.8389,-0.0127
21.8417,-0.007
21.8444,0.0143
21.8472,-0.0118
21.85,-0.0064
21.8528,-0.0033
21.8556,0.0015
21.8583,0.0053
21.8611,0.0048
21.8639,-0.0004
21.8667,0.0111
21.8694,0.0052
21.8722,0.0054
21.875,0.0076
21.8778,-0.014
21.8806,-0.0082
21.8833,0.0045
21.8861,-0.0082
21.8889,-0.0218
21.8917,0.0026
21.8944,0.003
21.8972,-0.0094
21.9,0.0082
21.9028,-0.015
21.9056,-0.0043
21.9083,-0.0175
21.9111,-0.0178
21.9139,0.0097
21.9167,0.0111
21.9194,-0.0101
21.9222,0.0126
21.925,-0.0062
21.9278,0.0142
21.9306,-0.0126
21.9333,0.0139
21.9361,0.001
21.9389,0.0075
21.9417,0.0113
21.9444,0.0104
21.9472,0.0179
21.95,0.0147
21.9528,0.0074
21.9556,-0.0065
21.9583,0.0062
21.9611,0.0023
21.9639,0.0116
21.9667,-0.0301
21.9694,-0.0058
21.9722,-0.0007
21.975,-0.0084
21.9778,0.0087
21.9806,0.0022
21.9833,0.026
21.9861,0.0187
21.9889,0.0128
21.9917,0.0207
21.9944,0.0355
21.9972,0.0459
22.0,0.0371
22.0028,0.0509
22.0056,0.0611
22.0083,0.0686
22.0111,0.0521
22.0139,0.0707
22.0167,0.0568
22.0194,0.0667
22.0222,0.0594
22.025,0.0961
22.0278,0.084
22.0306,0.093
22.0333,0.0772
22.0361,0.0879
22.0389,0.0776
22.0417,0.0634
22.0444,0.0645
22.0472,0.088
22.05,0.0922
22.0528,0.0895
22.0556,0.0734
22.0583,0.0705
22.0611,0.0803
22.0639,0.0809
22.0667,0.0691
22.0694,0.0616
22.0722,0.0698
22.075,0.0747
22.0778,0.0637
22.0806,0.0717
22.0833,0.0665
22.0861,0.065
22.0889,0.0652
22.0917,0.0743
22.0944,0.047
22.0972,0.0406
22.1,0.0335
22.1028,0.0375
22.1056,0.0539
22.1083,0.0374
22.1111,0.0216
22.1139,0.0491
22.1167,0.0185
22.1194,0.011
22.1222,0.0108
22.125,-0.0133
22.1278,0.0039
22.1306,0.0016
22.1333,-0.0186
22.1361,-0.0123
22.1389,0.0039
22.1417,0.0077
22.1444,-0.0017
22.1472,-0.0079
22.15,0.0114
22.1528,-0.0096
22.1556,0.0076
22.1583,0.011
22.1611,0.0129
22.1639,0.0095
22.1667,0.0062
22.1694,-0.0145
22.1722,-0.0154
22.175,0.0146
22.1778,-0.0045
22.1806,0.002
22.1833,-0.0145
22.1861,0.0045
22.1889,0.0192
22.1917,0.0001
22.1944,-0.0109
22.1972,-0.0166
22.2,-0.0333
22.2028,-0.0562
22.2056,-0.0426
22.2083,-0.0379
22.2111,-0.0228
22.2139,-0.0039
22.2167,0.1042
22.2194,0.2042
22.2222,0.2948
22.225,0.3989
22.2278,0.4801
22.2306,0.555
22.2333,0.6316
22.2361,0.7132
22.2389,0.7566
22.2417,0.7786
22.2444,0.8018
22.2472,0.7941
22.25,0.7998
22.2528,0.771
22.2556,0.7464
22.2583,0.6685
22.2611,0.6236
22.2639,0.551
22.2667,0.4971
22.2694,0.383
22.2722,0.2826
22.275,0.1789
22.2778,0.1008
22.2806,-0.0147
22.2833,-0.0396
22.2861,-0.057
22.2889,-0.0693
22.2917,-0.1061
22.2944,-0.0954
22.2972,-0.0987
22.3,-0.1327
22.3028,-0.1186
22.3056,-0.1204
22.3083,-0.1148
22.3111,-0.1101
22.3139,-0.0803
22.3167,-0.0563
22.3194,-0.0392
22.3222,-0.0204
22.325,0.0078
22.3278,-0.0097
22.3306,-0.011
22.3333,0.0028
22.3361,0.0026
22.3389,0.013
22.3417,-0.0169
22.3444,-0.0021
22.3472,-0.0019
22.35,-0.0056
22.3528,0.0063
22.3556,-0.0118
22.3583,0.0059
22.3611,0.0112
22.3639,0.0017
22.3667,0.0033
22.3694,0.0063
22.3722,0.0022
22.375,-0.0115
22.3778,-0.0046
22.3806,-0.0042
22.3833,-0.0139
22.3861,0.0015
22.3889,0.0007
22.3917,-0.0263
22.3944,0.0001
22.3972,-0.0158
22.4,-0.0095
22.4028,0.0177
22.4056,-0.0021
22.4083,0.0089
22.4111,0.0068
22.4139,0.0125
22.4167,-0.0178
22.4194,0.001
22.4222,-0.0073
22.425,-0.0097
22.4278,-0.0101
22.4306,-0.0021
22.4333,-0.004
22.4361,0.0106
22.4389,0.0269
22.4417,0.0129
22.4444,0.0421
22.4472,0.0156
22.45,0.0392
22.4528,0.0618
22.4556,0.0299
22.4583,0.0465
22.4611,0.0532
22.4639,0.0713
22.4667,0.0715
22.4694,0.0842
22.4722,0.0676
22.475,0.0825
22.4778,0.0924
22.4806,0.0873
22.4833,0.1021
22.4861,0.1119
22.4889,0.1085
22.4917,0.1202
22.4944,0.1094
22.4972,0.1168
22.5,0.1203
22.5028,0.1343
22.5056,0.1234
22.5083,0.1291
22.5111,0.1216
22.5139,0.1327
22.5167,0.137
22.5194,0.1434
22.5222,0.1491
22.525,0.1451
22.5278,0.1385
22.5306,0.1355
22.5333,0.1495
22.5361,0.1366
22.5389,0.1385
22.5417,0.1444
22.5444,0.1444
22.5472,0.1341
22.55,0.1431
22.5528,0.1654
22.5556,0.1419
22.5583,0.15
22.5611,0.1528
22.5639,0.1442
22.5667,0.1469
22.5694,0.1397
22.5722,0.1431
22.575,0.1231
22.5778,0.1434
22.5806,0.1391
22.5833,0.1124
22.5861,0.1387
22.5889,0.1127
22.5917,0.1311
22.5944,0.1224
22.5972,0.1066
22.6,0.111
22.6028,0.102
22.6056,0.0953
22.6083,0.0915
22.6111,0.0895
22.6139,0.0888
22.6167,0.061
22.6194,0.0737
22.6222,0.0545
22.625,0.0327
22.6278,0.0582
22.6306,0.0676
22.6333,0.0514
22.6361,0.0422
22.6389,0.0172
22.6417,0.0331
22.6444,0.0074
22.6472,0.0083
22.65,0.0031
22.6528,-0.0026
22.6556,-0.0029
22.6583,-0.0026
22.6611,0.0062
22.6639,0.0064
22.6667,-0.0043
22.6694,0.0227
22.6722,0.0003
22.675,0.0063
22.6778,-0.0073
22.6806,0.0077
22.6833,0.01
22.6861,0.0142
22.6889,0.0148
22.6917,0.0042
22.6944,0.0051
22.6972,0.013
22.7,-0.0011
22.7028,0.0023
22.7056,-0.0252
22.7083,-0.0019
22.7111,0.0188
22.7139,0.0019
22.7167,-0.0009
22.7194,-0.018
22.7222,0.0126
22.725,0.0018
22.7278,0.0128
22.7306,0.0057
22.7333,-0.0031
22.7361,0.0165
22.7389,-0.0037
22.7417,-0.0089
22.7444,-0.0175
22.7472,-0.0008
22.75,0.0019
22.7528,-0.0066
22.7556,0.0139
22.7583,0.006
22.7611,-0.0282
22.7639,-0.0087
22.7667,-0.0043
22.7694,0.016
22.7722,-0.0124
22.775,0.0053
22.7778,0.0065
22.7806,-0.0055
22.7833,0.0114
22.7861,0.0002
22.7889,-0.0106
22.7917,-0.0206
22.7944,-0.0047
22.7972,-0.0081
22.8,0.0067
22.8028,-0.0037
22.8056,-0.0214
22.8083,0.0064
22.8111,0.0001
22.8139,0.0198
22.8167,0.0009
22.8194,-0.0006
22.8222,-0.0119
22.825,0.0026
22.8278,0.0231
22.8306,-0.0064
22.8333,0.001
22.8361,-0.0007
