time,ecg
0.0,-0.008
0.0028,0.0284
0.0056,-0.0201
0.0083,0.0107
0.0111,0.0017
0.0139,-0.0025
0.0167,-0.0018
0.0194,0.0043
0.0222,0.0028
0.025,0.0059
0.0278,0.0055
0.0306,-0.0025
0.0333,-0.0096
0.0361,0.0025
0.0389,0.0066
0.0417,-0.0064
0.0444,-0.0125
0.0472,-0.0165
0.05,0.0063
0.0528,-0.0002
0.0556,-0.0095
0.0583,0.0135
0.0611,-0.0023
0.0639,-0.0012
0.0667,0.006
0.0694,0.0086
0.0722,-0.007
0.075,0.0073
0.0778,0.0047
0.0806,0.01
0.0833,-0.004
0.0861,-0.0155
0.0889,-0.0036
0.0917,0.0038
0.0944,-0.0051
0.0972,0.0128
0.1,0.0264
0.1028,0.0248
0.1056,0.034
0.1083,0.0104
0.1111,0.0352
0.1139,0.0328
0.1167,0.0553
0.1194,0.045
0.1222,0.0537
0.125,0.0583
0.1278,0.0553
0.1306,0.0729
0.1333,0.0494
0.1361,0.0791
0.1389,0.0689
0.1417,0.0635
0.1444,0.0757
0.1472,0.0751
0.15,0.0706
0.1528,0.064
0.1556,0.0672
0.1583,0.0795
0.1611,0.0932
0.1639,0.0775
0.1667,0.0735
0.1694,0.0679
0.1722,0.0746
0.175,0.0682
0.1778,0.0785
0.1806,0.0717
0.1833,0.0856
0.1861,0.0627
0.1889,0.0761
0.1917,0.0879
0.1944,0.0841
0.1972,0.0593
0.2,0.0586
0.2028,0.0505
0.2056,0.0617
0.2083,0.0527
0.2111,0.0544
0.2139,0.0605
0.2167,0.0391
0.2194,0.0447
0.2222,0.0387
0.225,0.0392
0.2278,0.0296
0.2306,0.0366
0.2333,0.0261
0.2361,0.0107
0.2389,-0.0004
0.2417,0.0021
0.2444,0.0179
0.2472,0.0025
0.25,0.0043
0.2528,-0.0021
0.2556,-0.0109
0.2583,-0.0074
0.2611,0.0194
0.2639,0.0066
0.2667,-0.0036
0.2694,-0.0245
0.2722,-0.0091
0.275,-0.0003
0.2778,-0.0042
0.2806,0.0045
0.2833,-0.0115
0.2861,-0.0137
0.2889,0.0195
0.2917,0.013
0.2944,-0.0049
0.2972,-0.0045
0.3,0.0162
0.3028,-0.0017
0.3056,-0.0051
0.3083,0.0013
0.3111,-0.0045
0.3139,0.0024
0.3167,-0.0015
0.3194,-0.0332
0.3222,-0.0321
0.325,-0.0269
0.3278,-0.0328
0.3306,-0.0423
0.3333,-0.0317
0.3361,-0.0187
0.3389,-0.012
0.3417,0.0786
0.3444,0.1961
0.3472,0.2688
0.35,0.3746
0.3528,0.48
0.3556,0.5491
0.3583,0.6209
0.3611,0.6794
0.3639,0.7263
0.3667,0.7711
0.3694,0.7942
0.3722,0.8004
0.375,0.7968
0.3778,0.7723
0.3806,0.7289
0.3833,0.7085
0.3861,0.6594
0.3889,0.5932
0.3917,0.535
0.3944,0.4576
0.3972,0.3466
0.4,0.2738
0.4028,0.1716
0.4056,0.0667
0.4083,-0.0068
0.4111,-0.0343
0.4139,-0.0476
0.4167,-0.0777
0.4194,-0.0783
0.4222,-0.1012
0.425,-0.1202
0.4278,-0.1179
0.4306,-0.1229
0.4333,-0.1183
0.4361,-0.1083
0.4389,-0.0938
0.4417,-0.077
0.4444,-0.0574
0.4472,-0.0425
0.45,-0.0126
0.4528,-0.0128
0.4556,-0.014
0.4583,0.0073
0.4611,0.0105
0.4639,0.011
0.4667,-0.0016
0.4694,0.0229
0.4722,0.0057
0.475,-0.0183
0.4778,-0.0099
0.4806,-0.0113
0.4833,0.0071
0.4861,0.0002
0.4889,0.002
0.4917,-0.017
0.4944,0.0036
0.4972,0.0225
0.5,-0.0065
0.5028,-0.0147
0.5056,0.0028
0.5083,-0.0182
0.5111,0.0172
0.5139,-0.0103
0.5167,0.003
0.5194,-0.0155
0.5222,0.0074
0.525,-0.01
0.5278,-0.0089
0.5306,0.0081
0.5333,-0.0361
0.5361,0.0062
0.5389,0.0029
0.5417,0.0091
0.5444,-0.0158
0.5472,-0.0086
0.55,-0.004
0.5528,-0.0018
0.5556,-0.0014
0.5583,0.0101
0.5611,0.0002
0.5639,-0.0025
0.5667,0.0065
0.5694,0.014
0.5722,0.016
0.575,0.0182
0.5778,0.033
0.5806,0.0294
0.5833,0.0325
0.5861,0.0513
0.5889,0.0442
0.5917,0.0512
0.5944,0.062
0.5972,0.0468
0.6,0.0769
0.6028,0.0628
0.6056,0.0756
0.6083,0.0892
0.6111,0.1078
0.6139,0.1062
0.6167,0.0935
0.6194,0.0949
0.6222,0.1266
0.625,0.1055
0.6278,0.1127
0.6306,0.1077
0.6333,0.115
0.6361,0.1442
0.6389,0.1285
0.6417,0.1317
0.6444,0.1349
0.6472,0.1336
0.65,0.1539
0.6528,0.141
0.6556,0.1397
0.6583,0.136
0.6611,0.1401
0.6639,0.1558
0.6667,0.1508
0.6694,0.1599
0.6722,0.1462
0.675,0.1525
0.6778,0.1655
0.6806,0.1555
0.6833,0.1447
0.6861,0.155
0.6889,0.1468
0.6917,0.1504
0.6944,0.1371
0.6972,0.1308
0.7,0.1554
0.7028,0.1254
0.7056,0.1506
0.7083,0.1376
0.7111,0.1298
0.7139,0.1317
0.7167,0.1537
0.7194,0.141
0.7222,0.1126
0.725,0.1128
0.7278,0.1235
0.7306,0.1133
0.7333,0.1151
0.7361,0.0988
0.7389,0.1093
0.7417,0.0864
0.7444,0.0823
0.7472,0.0879
0.75,0.0869
0.7528,0.0789
0.7556,0.0768
0.7583,0.0579
0.7611,0.044
0.7639,0.0585
0.7667,0.0538
0.7694,0.0508
0.7722,0.0387
0.775,0.0311
0.7778,0.0374
0.7806,0.034
0.7833,0.0165
0.7861,-0.007
0.7889,0.0139
0.7917,-0.0028
0.7944,-0.0075
0.7972,0.0095
0.8,-0.0028
0.8028,0.0048
0.8056,0.0059
0.8083,0.0045
0.8111,0.0198
0.8139,-0.0274
0.8167,-0.0055
0.8194,-0.0024
0.8222,0.0132
0.825,-0.0058
0.8278,-0.0028
0.8306,-0.0091
0.8333,-0.0058
0.8361,-0.0038
0.8389,-0.0025
0.8417,0.0012
0.8444,-0.0013
0.8472,0.0086
0.85,0.0055
0.8528,-0.0035
0.8556,-0.004
0.8583,0.0094
0.8611,-0.0025
0.8639,-0.0052
0.8667,0.0206
0.8694,-0.0072
0.8722,0.0101
0.875,0.0036
0.8778,0.0133
0.8806,-0.0181
0.8833,-0.0113
0.8861,-0.0007
0.8889,-0.0164
0.8917,-0.0086
0.8944,-0.0097
0.8972,-0.002
0.9,-0.0094
0.9028,0.0135
0.9056,0.004
0.9083,-0.0076
0.9111,0.0075
0.9139,-0.0272
0.9167,-0.017
0.9194,-0.0125
0.9222,-0.0065
0.925,-0.0166
0.9278,-0.0047
0.9306,0.0107
0.9333,0.0021
0.9361,0.0023
0.9389,0.0038
0.9417,0.0079
0.9444,-0.0033
0.9472,0.0206
0.95,0.009
0.9528,0.0
0.9556,-0.0022
0.9583,-0.0122
0.9611,0.0036
0.9639,0.009
0.9667,0.0137
0.9694,0.0059
0.9722,0.0031
0.975,-0.0005
0.9778,0.001
0.9806,-0.0061
0.9833,-0.0062
0.9861,0.0052
0.9889,0.0126
0.9917,-0.0203
0.9944,0.0011
0.9972,-0.0084
1.0,0.0144
1.0028,-0.0111
1.0056,-0.0179
1.0083,-0.004
1.0111,-0.0044
1.0139,-0.0021
1.0167,0.0025
1.0194,0.02
1.0222,0.0104
1.025,0.0095
1.0278,0.0167
1.0306,0.0055
1.0333,-0.0031
1.0361,-0.0129
1.0389,-0.0154
1.0417,-0.0008
1.0444,0.004
1.0472,-0.0005
1.05,0.0055
1.0528,-0.0051
1.0556,-0.0146
1.0583,-0.0045
1.0611,0.0024
1.0639,0.0004
1.0667,-0.0009
1.0694,-0.0016
1.0722,-0.0024
1.075,0.0137
1.0778,0.0122
1.0806,0.0028
1.0833,0.0067
1.0861,0.0107
1.0889,-0.0078
1.0917,0.016
1.0944,0.0015
1.0972,0.0093
1.1,0.0088
1.1028,-0.0151
1.1056,-0.0047
1.1083,-0.0087
1.1111,-0.0143
1.1139,0.0033
1.1167,-0.0016
1.1194,-0.0012
1.1222,-0.0028
1.125,-0.0014
1.1278,0.0047
1.1306,-0.0122
1.1333,-0.0075
1.1361,0.0012
1.1389,-0.0033
1.1417,0.0018
1.1444,0.0064
1.1472,0.0085
1.15,0.0006
1.1528,0.0054
1.1556,-0.0138
1.1583,0.0128
1.1611,0.0065
1.1639,0.0099
1.1667,0.0069
1.1694,0.0063
1.1722,0.0237
1.175,0.0147
1.1778,-0.0133
1.1806,0.0059
1.1833,0.0078
1.1861,0.014
1.1889,-0.0052
1.1917,-0.0151
1.1944,-0.0049
1.1972,0.0141
1.2,0.0047
1.2028,-0.0082
1.2056,-0.0156
1.2083,-0.0023
1.2111,-0.009
1.2139,-0.0128
1.2167,0.0006
1.2194,0.0118
1.2222,0.0055
1.225,0.0029
1.2278,0.0117
1.2306,0.0032
1.2333,0.0003
1.2361,0.0348
1.2389,0.0409
1.2417,0.0326
1.2444,0.0215
1.2472,0.0253
1.25,0.0422
1.2528,0.046
1.2556,0.0495
1.2583,0.034
1.2611,0.0628
1.2639,0.0452
1.2667,0.0476
1.2694,0.0601
1.2722,0.0633
1.275,0.0864
1.2778,0.0631
1.2806,0.0631
1.2833,0.0839
1.2861,0.067
1.2889,0.0769
1.2917,0.0613
1.2944,0.0908
1.2972,0.0679
1.3,0.0864
1.3028,0.0848
1.3056,0.0662
1.3083,0.0934
1.3111,0.0852
1.3139,0.0705
1.3167,0.0939
1.3194,0.0636
1.3222,0.0833
1.325,0.0827
1.3278,0.0688
1.3306,0.0543
1.3333,0.0738
1.3361,0.0645
1.3389,0.0802
1.3417,0.058
1.3444,0.0788
1.3472,0.062
1.35,0.0562
1.3528,0.054
1.3556,0.0397
1.3583,0.0388
1.3611,0.0494
1.3639,0.0432
1.3667,0.0398
1.3694,0.0343
1.3722,0.0197
1.375,0.0098
1.3778,0.0106
1.3806,0.0258
1.3833,0.0208
1.3861,-0.0028
1.3889,-0.0058
1.3917,-0.0148
1.3944,0.0071
1.3972,-0.007
1.4,0.0071
1.4028,-0.0052
1.4056,-0.0062
1.4083,0.0026
1.4111,-0.0147
1.4139,0.0106
1.4167,-0.0004
1.4194,-0.0042
1.4222,0.0062
1.425,-0.0052
1.4278,0.0011
1.4306,-0.0009
1.4333,0.0182
1.4361,0.0191
1.4389,0.0054
1.4417,-0.0049
1.4444,0.0131
1.4472,-0.0053
1.45,-0.0087
1.4528,-0.0044
1.4556,-0.0119
1.4583,-0.0182
1.4611,0.0053
1.4639,-0.0244
1.4667,-0.0386
1.4694,-0.0428
1.4722,-0.0383
1.475,-0.033
1.4778,-0.0258
1.4806,-0.0368
1.4833,0.0091
1.4861,0.0839
1.4889,0.1767
1.4917,0.2623
1.4944,0.3738
1.4972,0.4559
1.5,0.5169
1.5028,0.5799
1.5056,0.6539
1.5083,0.7099
1.5111,0.7335
1.5139,0.7802
1.5167,0.7962
1.5194,0.8042
1.5222,0.8132
1.525,0.7725
1.5278,0.7459
1.5306,0.7105
1.5333,0.6531
1.5361,0.5951
1.5389,0.5131
1.5417,0.4336
1.5444,0.3354
1.5472,0.248
1.55,0.1605
1.5528,0.0525
1.5556,0.0009
1.5583,-0.0345
1.5611,-0.0527
1.5639,-0.0752
1.5667,-0.063
1.5694,-0.1141
1.5722,-0.1173
1.575,-0.1328
1.5778,-0.1199
1.5806,-0.1172
1.5833,-0.1129
1.5861,-0.1118
1.5889,-0.0904
1.5917,-0.0802
1.5944,-0.0467
1.5972,-0.0415
1.6,-0.0097
1.6028,-0.0018
1.6056,-0.0034
1.6083,-0.0162
1.6111,0.0078
1.6139,0.0049
1.6167,0.0009
1.6194,0.0064
1.6222,0.007
1.625,0.0168
1.6278,-0.0087
1.6306,-0.0056
1.6333,0.001
1.6361,-0.0015
1.6389,-0.0172
1.6417,0.0124
1.6444,0.0042
1.6472,-0.0065
1.65,-0.0183
1.6528,-0.0027
1.6556,-0.0093
1.6583,-0.0026
1.6611,0.003
1.6639,-0.0102
1.6667,-0.0048
1.6694,0.0306
1.6722,-0.0121
1.675,0.0262
1.6778,0.0141
1.6806,0.014
1.6833,0.0064
1.6861,-0.0001
1.6889,0.0104
1.6917,-0.0095
1.6944,0.0156
1.6972,0.0166
1.7,-0.0028
1.7028,0.0106
1.7056,0.0095
1.7083,-0.0111
1.7111,0.0023
1.7139,-0.0111
1.7167,-0.002
1.7194,-0.0012
1.7222,0.0014
1.725,0.0095
1.7278,0.0331
1.7306,0.0251
1.7333,0.0296
1.7361,0.0201
1.7389,0.0505
1.7417,0.0584
1.7444,0.0576
1.7472,0.0617
1.75,0.0572
1.7528,0.0682
1.7556,0.0469
1.7583,0.0934
1.7611,0.0895
1.7639,0.0983
1.7667,0.0899
1.7694,0.0837
1.7722,0.1065
1.775,0.0994
1.7778,0.0992
1.7806,0.1293
1.7833,0.0957
1.7861,0.1232
1.7889,0.1103
1.7917,0.131
1.7944,0.134
1.7972,0.1557
1.8,0.1291
1.8028,0.1492
1.8056,0.1501
1.8083,0.1294
1.8111,0.148
1.8139,0.1523
1.8167,0.1417
1.8194,0.1405
1.8222,0.1439
1.825,0.1445
1.8278,0.1428
1.8306,0.135
1.8333,0.1252
1.8361,0.1522
1.8389,0.1395
1.8417,0.1609
1.8444,0.1423
1.8472,0.1478
1.85,0.148
1.8528,0.1669
1.8556,0.1376
1.8583,0.147
1.8611,0.1415
1.8639,0.1299
1.8667,0.1354
1.8694,0.1239
1.8722,0.1373
1.875,0.1193
1.8778,0.1236
1.8806,0.1255
1.8833,0.1378
1.8861,0.1202
1.8889,0.1136
1.8917,0.1261
1.8944,0.0975
1.8972,0.1075
1.9,0.0913
1.9028,0.0928
1.9056,0.0852
1.9083,0.0886
1.9111,0.075
1.9139,0.0847
1.9167,0.0684
1.9194,0.0655
1.9222,0.0581
1.925,0.0575
1.9278,0.0512
1.9306,0.0312
1.9333,0.0315
1.9361,0.0408
1.9389,0.0161
1.9417,0.0213
1.9444,0.036
1.9472,0.002
1.95,0.022
1.9528,-0.0093
1.9556,-0.0094
1.9583,0.0121
1.9611,-0.0067
1.9639,0.0114
1.9667,-0.0108
1.9694,-0.0111
1.9722,0.0202
1.975,-0.0024
1.9778,-0.0049
1.9806,-0.0104
1.9833,-0.0137
1.9861,-0.0012
1.9889,-0.0051
1.9917,0.0084
1.9944,-0.0088
1.9972,0.009
2.0,-0.0068
2.0028,-0.0146
2.0056,0.0039
2.0083,-0.0046
2.0111,-0.024
2.0139,-0.01
2.0167,-0.0005
2.0194,-0.0069
2.0222,-0.0013
2.025,-0.0025
2.0278,0.0204
2.0306,0.0029
2.0333,0.0009
2.0361,-0.0045
2.0389,0.009
2.0417,0.0187
2.0444,0.0106
2.0472,-0.0097
2.05,0.0055
2.0528,-0.0059
2.0556,-0.0009
2.0583,0.009
2.0611,0.0108
2.0639,-0.0179
2.0667,-0.0066
2.0694,-0.0022
2.0722,0.0024
2.075,0.0087
2.0778,-0.0026
2.0806,-0.0015
2.0833,-0.0005
2.0861,0.0162
2.0889,0.0219
2.0917,-0.0043
2.0944,-0.0108
2.0972,-0.0029
2.1,0.0082
2.1028,0.0076
2.1056,-0.0029
2.1083,-0.0019
2.1111,0.0033
2.1139,0.0038
2.1167,-0.0049
2.1194,-0.007
2.1222,-0.0083
2.125,0.0002
2.1278,0.0088
2.1306,-0.0022
2.1333,-0.0027
2.1361,0.0005
2.1389,-0.0132
2.1417,0.0199
2.1444,-0.0019
2.1472,0.009
2.15,-0.0039
2.1528,0.0142
2.1556,0.0143
2.1583,-0.0009
2.1611,0.0057
2.1639,0.0061
2.1667,0.0073
2.1694,0.0082
2.1722,0.0141
2.175,0.0062
2.1778,-0.0077
2.1806,-0.0053
2.1833,0.0063
2.1861,0.0062
2.1889,-0.0081
2.1917,0.0155
2.1944,0.0111
2.1972,0.0113
2.2,-0.0031
2.2028,0.0006
2.2056,-0.0161
2.2083,-0.0058
2.2111,-0.0165
2.2139,0.017
2.2167,-0.0078
2.2194,0.0118
2.2222,0.0063
2.225,0.0087
2.2278,0.0064
2.2306,-0.015
2.2333,0.0022
2.2361,-0.004
2.2389,0.0116
2.2417,-0.0152
2.2444,-0.0023
2.2472,0.0024
2.25,-0.0089
2.2528,0.0108
2.2556,-0.0041
2.2583,0.0214
2.2611,-0.0092
2.2639,0.0038
2.2667,-0.0051
2.2694,0.0076
2.2722,-0.0047
2.275,0.0046
2.2778,-0.0035
2.2806,0.0046
2.2833,-0.0023
2.2861,-0.0168
2.2889,-0.0001
2.2917,0.0069
2.2944,-0.0049
2.2972,-0.0051
2.3,0.0064
2.3028,0.007
2.3056,-0.0022
2.3083,-0.0085
2.3111,0.0099
2.3139,0.0096
2.3167,0.0119
2.3194,-0.0038
2.3222,0.0006
2.325,-0.0004
2.3278,-0.0121
2.3306,0.0122
2.3333,-0.0038
2.3361,0.0249
2.3389,0.0143
2.3417,-0.0093
2.3444,0.0108
2.3472,0.0101
2.35,-0.0005
2.3528,-0.019
2.3556,-0.006
2.3583,-0.0
2.3611,-0.003
2.3639,-0.0144
2.3667,-0.0105
2.3694,0.0276
2.3722,0.0016
2.375,0.013
2.3778,0.0104
2.3806,-0.0048
2.3833,-0.0204
2.3861,0.0003
2.3889,0.0193
2.3917,-0.002
2.3944,-0.0059
2.3972,-0.0088
2.4,0.0076
2.4028,0.0129
2.4056,0.0177
2.4083,-0.0023
2.4111,0.0423
2.4139,0.0525
2.4167,0.0353
2.4194,0.0324
2.4222,0.0316
2.425,0.0413
2.4278,0.0278
2.4306,0.0379
2.4333,0.0361
2.4361,0.048
2.4389,0.0619
2.4417,0.0549
2.4444,0.063
2.4472,0.0891
2.45,0.0691
2.4528,0.0925
2.4556,0.0835
2.4583,0.0795
2.4611,0.0901
2.4639,0.0564
2.4667,0.0666
2.4694,0.0725
2.4722,0.086
2.475,0.0829
2.4778,0.0813
2.4806,0.0751
2.4833,0.0958
2.4861,0.0744
2.4889,0.0632
2.4917,0.0726
2.4944,0.0735
2.4972,0.082
2.5,0.0601
2.5028,0.0815
2.5056,0.0758
2.5083,0.0682
2.5111,0.068
2.5139,0.0551
2.5167,0.0523
2.5194,0.0433
2.5222,0.0496
2.525,0.0566
2.5278,0.0535
2.5306,0.0462
2.5333,0.0541
2.5361,0.0235
2.5389,0.0025
2.5417,0.0198
2.5444,0.0283
2.5472,-0.0124
2.55,0.006
2.5528,-0.0048
2.5556,-0.0125
2.5583,0.0047
2.5611,0.0037
2.5639,-0.0155
2.5667,0.0179
2.5694,-0.0024
2.5722,0.0036
2.575,0.02
2.5778,-0.0052
2.5806,-0.0003
2.5833,-0.0038
2.5861,-0.0021
2.5889,0.017
2.5917,-0.0086
2.5944,0.0044
2.5972,-0.0089
2.6,-0.0143
2.6028,0.0092
2.6056,0.0116
2.6083,-0.0021
2.6111,0.0172
2.6139,0.0066
2.6167,-0.0101
2.6194,-0.0006
2.6222,-0.0015
2.625,-0.0102
2.6278,-0.0192
2.6306,-0.0504
2.6333,-0.047
2.6361,-0.0231
2.6389,-0.0297
2.6417,-0.003
2.6444,0.0094
2.6472,0.1237
2.65,0.2082
2.6528,0.3282
2.6556,0.4025
2.6583,0.4976
2.6611,0.5828
2.6639,0.6379
2.6667,0.7052
2.6694,0.7282
2.6722,0.788
2.675,0.7829
2.6778,0.8208
2.6806,0.791
2.6833,0.7704
2.6861,0.7494
2.6889,0.6812
2.6917,0.6346
2.6944,0.5688
2.6972,0.4893
2.7,0.4149
2.7028,0.323
2.7056,0.2169
2.7083,0.127
2.7111,0.0029
2.7139,-0.0018
2.7167,-0.0335
2.7194,-0.0623
2.7222,-0.0822
2.725,-0.1078
2.7278,-0.1085
2.7306,-0.1367
2.7333,-0.1351
2.7361,-0.1266
2.7389,-0.1005
2.7417,-0.1096
2.7444,-0.0916
2.7472,-0.0796
2.75,-0.0519
2.7528,-0.0259
2.7556,-0.0009
2.7583,-0.0098
2.7611,0.0071
2.7639,0.001
2.7667,-0.007
2.7694,0.0015
2.7722,0.0036
2.775,-0.0017
2.7778,0.0079
2.7806,0.0013
2.7833,-0.0081
2.7861,0.003
2.7889,0.0137
2.7917,-0.0005
2.7944,0.008
2.7972,-0.0073
2.8,-0.001
2.8028,0.011
2.8056,0.0049
2.8083,0.005
2.8111,0.0046
2.8139,-0.0143
2.8167,-0.0104
2.8194,0.0198
2.8222,0.0055
2.825,0.014
2.8278,-0.0021
2.8306,0.0035
2.8333,0.0025
2.8361,-0.0185
2.8389,0.0072
2.8417,0.0017
2.8444,0.004
2.8472,-0.0016
2.85,-0.0123
2.8528,0.0045
2.8556,-0.0063
2.8583,0.0014
2.8611,0.0031
2.8639,-0.0018
2.8667,0.0119
2.8694,0.0046
2.8722,-0.0039
2.875,0.0116
2.8778,0.0006
2.8806,0.0127
2.8833,0.0364
2.8861,0.0217
2.8889,0.042
2.8917,0.0346
2.8944,0.0569
2.8972,0.058
2.9,0.0553
2.9028,0.0635
2.9056,0.0775
2.9083,0.0753
2.9111,0.0943
2.9139,0.0833
2.9167,0.0781
2.9194,0.0954
2.9222,0.1157
2.925,0.1113
2.9278,0.1212
2.9306,0.122
2.9333,0.1285
2.9361,0.1072
2.9389,0.1306
2.9417,0.1198
2.9444,0.1173
2.9472,0.1435
2.95,0.1244
2.9528,0.1215
2.9556,0.1341
2.9583,0.1428
2.9611,0.1327
2.9639,0.165
2.9667,0.1487
2.9694,0.1597
2.9722,0.1488
2.975,0.1338
2.9778,0.1637
2.9806,0.1538
2.9833,0.1441
2.9861,0.1501
2.9889,0.1644
2.9917,0.1562
2.9944,0.1276
2.9972,0.1408
3.0,0.1399
3.0028,0.1476
3.0056,0.1475
3.0083,0.136
3.0111,0.1456
3.0139,0.1339
3.0167,0.1509
3.0194,0.1365
3.0222,0.1351
3.025,0.1338
3.0278,0.1311
3.0306,0.1322
3.0333,0.1155
3.0361,0.0971
3.0389,0.1038
3.0417,0.1072
3.0444,0.0893
3.0472,0.0945
3.05,0.0881
3.0528,0.0703
3.0556,0.0694
3.0583,0.0653
3.0611,0.0613
3.0639,0.0546
3.0667,0.0405
3.0694,0.0485
3.0722,0.0679
3.075,0.0473
3.0778,0.0581
3.0806,0.018
3.0833,0.0309
3.0861,0.0498
3.0889,0.0176
3.0917,-0.0075
3.0944,-0.0169
3.0972,0.0187
3.1,0.0037
3.1028,-0.0138
3.1056,0.0068
3.1083,-0.0019
3.1111,0.0019
3.1139,0.017
3.1167,0.0008
3.1194,0.0046
3.1222,-0.0095
3.125,-0.0108
3.1278,-0.0112
3.1306,-0.0094
3.1333,0.0077
3.1361,0.0072
3.1389,0.0178
3.1417,-0.0199
3.1444,0.0058
3.1472,0.0006
3.15,-0.015
3.1528,-0.0057
3.1556,-0.005
3.1583,0.0128
3.1611,-0.0074
3.1639,0.0023
3.1667,0.0111
3.1694,0.0032
3.1722,-0.0068
3.175,0.0126
3.1778,0.0165
3.1806,-0.0
3.1833,-0.014
3.1861,0.004
3.1889,0.0199
3.1917,-0.0024
3.1944,0.0063
3.1972,0.0095
3.2,-0.024
3.2028,-0.0114
3.2056,0.0146
3.2083,0.0043
3.2111,-0.0093
3.2139,0.0173
3.2167,0.0006
3.2194,0.0061
3.2222,0.011
3.225,0.007
3.2278,0.0096
3.2306,-0.0053
3.2333,0.0237
3.2361,0.0002
3.2389,0.0001
3.2417,-0.0021
3.2444,0.0077
3.2472,0.0008
3.25,-0.0062
3.2528,0.0015
3.2556,0.0008
3.2583,0.0108
3.2611,-0.0141
3.2639,0.0102
3.2667,-0.0024
3.2694,0.0008
3.2722,0.0074
3.275,0.0198
3.2778,-0.0174
3.2806,0.0022
3.2833,-0.0077
3.2861,-0.019
3.2889,-0.0013
3.2917,0.0261
3.2944,-0.0077
3.2972,-0.0056
3.3,0.0011
3.3028,0.0033
3.3056,-0.0032
3.3083,0.0094
3.3111,0.0125
3.3139,0.0074
3.3167,-0.0037
3.3194,-0.0075
3.3222,0.0011
3.325,-0.0001
3.3278,0.017
3.3306,-0.0004
3.3333,0.0038
3.3361,-0.0056
3.3389,0.001
3.3417,-0.0116
3.3444,-0.0164
3.3472,0.0177
3.35,-0.0117
3.3528,0.0
3.3556,0.003
3.3583,0.0007
3.3611,0.012
3.3639,-0.0154
3.3667,-0.0007
3.3694,0.0136
3.3722,-0.0088
3.375,0.0163
3.3778,-0.0077
3.3806,0.0004
3.3833,0.0022
3.3861,0.0123
3.3889,0.012
3.3917,-0.0188
3.3944,-0.0061
3.3972,0.0098
3.4,-0.001
3.4028,0.0087
3.4056,0.0036
3.4083,0.0006
3.4111,-0.0079
3.4139,0.0126
3.4167,0.0127
3.4194,-0.0021
3.4222,-0.0062
3.425,0.0034
3.4278,0.0017
3.4306,-0.0211
3.4333,0.001
3.4361,-0.0101
3.4389,-0.0098
3.4417,0.0073
3.4444,-0.0074
3.4472,0.0028
3.45,-0.0169
3.4528,0.0112
3.4556,0.0036
3.4583,0.0134
3.4611,0.0054
3.4639,-0.0076
3.4667,-0.0043
3.4694,0.0158
3.4722,0.0097
3.475,0.0142
3.4778,0.0256
3.4806,0.0035
3.4833,-0.0159
3.4861,-0.0048
3.4889,-0.0003
3.4917,-0.0094
3.4944,-0.0276
3.4972,0.0207
3.5,0.0205
3.5028,0.0115
3.5056,-0.0026
3.5083,0.023
3.5111,0.0011
3.5139,0.001
3.5167,0.0035
3.5194,-0.0017
3.5222,0.0107
3.525,0.0011
3.5278,0.0004
3.5306,0.0133
3.5333,0.0272
3.5361,0.0047
3.5389,0.0077
3.5417,0.0303
3.5444,0.0281
3.5472,0.0605
3.55,0.0331
3.5528,0.0477
3.5556,0.0533
3.5583,0.0405
3.5611,0.0572
3.5639,0.0458
3.5667,0.0609
3.5694,0.0493
3.5722,0.0601
3.575,0.0573
3.5778,0.0666
3.5806,0.0597
3.5833,0.0638
3.5861,0.0672
3.5889,0.067
3.5917,0.0713
3.5944,0.0778
3.5972,0.0859
3.6,0.0821
3.6028,0.0693
3.6056,0.096
3.6083,0.0716
3.6111,0.0692
3.6139,0.0792
3.6167,0.0921
3.6194,0.0576
3.6222,0.0665
3.625,0.0544
3.6278,0.0819
3.6306,0.0798
3.6333,0.0656
3.6361,0.0571
3.6389,0.0697
3.6417,0.0597
3.6444,0.0584
3.6472,0.0738
3.65,0.0404
3.6528,0.0593
3.6556,0.0509
3.6583,0.0602
3.6611,0.0338
3.6639,0.0446
3.6667,0.0222
3.6694,0.0244
3.6722,0.0238
3.675,0.0124
3.6778,0.005
3.6806,-0.0076
3.6833,0.0133
3.6861,-0.0031
3.6889,-0.0164
3.6917,0.0114
3.6944,-0.0037
3.6972,-0.0119
3.7,-0.0061
3.7028,-0.0003
3.7056,-0.0079
3.7083,-0.0114
3.7111,-0.0059
3.7139,-0.0004
3.7167,0.0156
3.7194,0.0122
3.7222,-0.007
3.725,0.0034
3.7278,0.0028
3.7306,-0.0015
3.7333,0.0048
3.7361,-0.0044
3.7389,0.0091
3.7417,-0.0092
3.7444,-0.0075
3.7472,0.0006
3.75,0.0111
3.7528,-0.0007
3.7556,0.0239
3.7583,0.0093
3.7611,-0.0116
3.7639,-0.0251
3.7667,-0.0275
3.7694,-0.0222
3.7722,-0.0465
3.775,-0.0122
3.7778,-0.0086
3.7806,0.0009
3.7833,0.1058
3.7861,0.179
3.7889,0.2621
3.7917,0.377
3.7944,0.463
3.7972,0.5495
3.8,0.6107
3.8028,0.6706
3.8056,0.7124
3.8083,0.7327
3.8111,0.787
3.8139,0.7911
3.8167,0.7975
3.8194,0.7822
3.8222,0.7748
3.825,0.7364
3.8278,0.7095
3.8306,0.6182
3.8333,0.5574
3.8361,0.501
3.8389,0.4223
3.8417,0.3303
3.8444,0.2281
3.8472,0.1406
3.85,0.0326
3.8528,-0.0292
3.8556,-0.0317
3.8583,-0.0443
3.8611,-0.0711
3.8639,-0.0836
3.8667,-0.0896
3.8694,-0.108
3.8722,-0.135
3.875,-0.1171
3.8778,-0.1119
3.8806,-0.1096
3.8833,-0.1028
3.8861,-0.0774
3.8889,-0.0605
3.8917,-0.0372
3.8944,-0.0252
3.8972,-0.0138
3.9,-0.0029
3.9028,-0.0112
3.9056,0.0071
3.9083,-0.0019
3.9111,0.0011
3.9139,0.0037
3.9167,-0.0012
3.9194,0.0039
3.9222,-0.0037
3.925,0.0056
3.9278,-0.0042
3.9306,-0.0025
3.9333,-0.0058
3.9361,0.0186
3.9389,-0.01
3.9417,-0.0064
3.9444,-0.0024
3.9472,0.0126
3.95,0.0033
3.9528,0.0029
3.9556,-0.006
3.9583,-0.0108
3.9611,0.0065
3.9639,0.0018
3.9667,0.0081
3.9694,0.0098
3.9722,-0.0041
3.975,-0.0051
3.9778,-0.0011
3.9806,0.0023
3.9833,0.002
3.9861,0.0024
3.9889,-0.0234
3.9917,-0.0002
3.9944,0.0185
3.9972,0.0004
4.0,0.0063
4.0028,0.0061
4.0056,0.0116
4.0083,-0.0052
4.0111,0.0101
4.0139,0.0061
4.0167,-0.0093
4.0194,0.0071
4.0222,0.0366
4.025,0.0273
4.0278,0.0384
4.0306,0.0005
4.0333,0.028
4.0361,0.0332
4.0389,0.0535
4.0417,0.0669
4.0444,0.0644
4.0472,0.0816
4.05,0.0793
4.0528,0.0688
4.0556,0.0781
4.0583,0.0864
4.0611,0.0936
4.0639,0.1128
4.0667,0.0834
4.0694,0.1053
4.0722,0.1022
4.075,0.1044
4.0778,0.106
4.0806,0.1026
4.0833,0.1185
4.0861,0.12
4.0889,0.1211
4.0917,0.1186
4.0944,0.1388
4.0972,0.1324
4.1,0.1373
4.1028,0.1275
4.1056,0.1351
4.1083,0.133
4.1111,0.1426
4.1139,0.1532
4.1167,0.1365
4.1194,0.155
4.1222,0.1712
4.125,0.1461
4.1278,0.1469
4.1306,0.1643
4.1333,0.1493
4.1361,0.1372
4.1389,0.1563
4.1417,0.1583
4.1444,0.1475
4.1472,0.1485
4.15,0.1376
4.1528,0.1447
4.1556,0.1485
4.1583,0.1474
4.1611,0.1407
4.1639,0.144
4.1667,0.1421
4.1694,0.1144
4.1722,0.1232
4.175,0.1259
4.1778,0.1418
4.1806,0.1208
4.1833,0.0941
4.1861,0.1142
4.1889,0.0987
4.1917,0.1009
4.1944,0.1011
4.1972,0.087
4.2,0.0918
4.2028,0.0915
4.2056,0.0907
4.2083,0.0797
4.2111,0.0684
4.2139,0.0678
4.2167,0.0721
4.2194,0.0744
4.2222,0.0678
4.225,0.0407
4.2278,0.0424
4.2306,0.0354
4.2333,0.0358
4.2361,0.0348
4.2389,0.0077
4.2417,0.0198
4.2444,0.0066
4.2472,0.0091
4.25,-0.0055
4.2528,0.007
4.2556,-0.0028
4.2583,-0.0093
4.2611,0.0042
4.2639,0.0131
4.2667,0.0126
4.2694,0.0142
4.2722,0.0083
4.275,-0.0094
4.2778,-0.0092
4.2806,-0.0087
4.2833,0.0015
4.2861,0.0046
4.2889,0.0059
4.2917,0.004
4.2944,0.0034
4.2972,0.0052
4.3,0.0096
4.3028,0.0225
4.3056,0.0155
4.3083,-0.0076
4.3111,-0.0011
4.3139,0.0005
4.3167,0.0268
4.3194,-0.0123
4.3222,0.0176
4.325,0.016
4.3278,-0.0019
4.3306,0.0014
4.3333,-0.0167
4.3361,-0.0017
4.3389,-0.0048
4.3417,0.0095
4.3444,0.0057
4.3472,0.0029
4.35,0.002
4.3528,-0.0072
4.3556,-0.0076
4.3583,-0.0297
4.3611,0.0046
4.3639,0.0132
4.3667,0.002
4.3694,0.0203
4.3722,-0.0121
4.375,-0.0022
4.3778,0.014
4.3806,0.0146
4.3833,0.0009
4.3861,-0.0299
4.3889,-0.0026
4.3917,0.0007
4.3944,0.0031
4.3972,-0.0065
4.4,0.0127
4.4028,-0.0058
4.4056,0.0018
4.4083,0.0112
4.4111,0.0094
4.4139,-0.0084
4.4167,-0.0047
4.4194,0.0099
4.4222,0.0194
4.425,-0.0143
4.4278,-0.0106
4.4306,-0.0002
4.4333,-0.0095
4.4361,0.006
4.4389,-0.0145
4.4417,0.0121
4.4444,0.002
4.4472,-0.0136
4.45,-0.0025
4.4528,-0.0142
4.4556,-0.0204
4.4583,0.0066
4.4611,-0.0002
4.4639,-0.0074
4.4667,0.0039
4.4694,0.0061
4.4722,-0.0119
4.475,-0.0046
4.4778,0.0066
4.4806,0.0069
4.4833,0.0101
4.4861,-0.0048
4.4889,0.0084
4.4917,-0.0074
4.4944,-0.0109
4.4972,-0.0004
4.5,-0.0032
4.5028,0.0047
4.5056,-0.0108
4.5083,0.0034
4.5111,0.0012
4.5139,0.0293
4.5167,-0.0003
4.5194,0.0087
4.5222,-0.0016
4.525,-0.0078
4.5278,0.0092
4.5306,0.0129
4.5333,0.0013
4.5361,0.0121
4.5389,0.0046
4.5417,0.003
4.5444,0.0004
4.5472,-0.0142
4.55,0.016
4.5528,0.016
4.5556,0.0045
4.5583,-0.0035
4.5611,-0.0228
4.5639,0.0014
4.5667,-0.0093
4.5694,-0.0053
4.5722,-0.0004
4.575,-0.0079
4.5778,0.0114
4.5806,0.017
4.5833,0.004
4.5861,0.0008
4.5889,-0.0052
4.5917,0.0028
4.5944,-0.0012
4.5972,-0.0132
4.6,-0.0008
4.6028,-0.0092
4.6056,-0.0114
4.6083,-0.0041
4.6111,-0.0072
4.6139,0.0017
4.6167,0.0029
4.6194,-0.0028
4.6222,-0.0032
4.625,0.005
4.6278,-0.0062
4.6306,-0.0212
4.6333,-0.0113
4.6361,0.0065
4.6389,-0.0118
4.6417,-0.0113
4.6444,-0.0221
4.6472,0.0141
4.65,-0.0035
4.6528,0.0053
4.6556,0.0082
4.6583,0.0056
4.6611,0.0135
4.6639,-0.0121
4.6667,0.0063
4.6694,0.0061
4.6722,-0.0001
4.675,-0.0167
4.6778,-0.0202
4.6806,0.0086
4.6833,0.0128
4.6861,-0.0026
4.6889,0.0052
4.6917,0.0127
4.6944,0.0235
4.6972,0.0196
4.7,0.0242
4.7028,0.0104
4.7056,0.0297
4.7083,0.0247
4.7111,0.0365
4.7139,0.0242
4.7167,0.0412
4.7194,0.0623
4.7222,0.0422
4.725,0.0717
4.7278,0.0511
4.7306,0.057
4.7333,0.0717
4.7361,0.0443
4.7389,0.078
4.7417,0.0643
4.7444,0.0612
4.7472,0.0717
4.75,0.079
4.7528,0.0769
4.7556,0.0711
4.7583,0.0796
4.7611,0.0756
4.7639,0.0761
4.7667,0.0676
4.7694,0.0651
4.7722,0.0621
4.775,0.0866
4.7778,0.0816
4.7806,0.0787
4.7833,0.0684
4.7861,0.0575
4.7889,0.0722
4.7917,0.0446
4.7944,0.0588
4.7972,0.0587
4.8,0.045
4.8028,0.0629
4.8056,0.0467
4.8083,0.0576
4.8111,0.0463
4.8139,0.0412
4.8167,0.0428
4.8194,0.0276
4.8222,0.0471
4.825,0.0277
4.8278,0.0279
4.8306,0.0293
4.8333,0.0192
4.8361,0.0094
4.8389,0.0103
4.8417,0.0158
4.8444,-0.0111
4.8472,-0.0066
4.85,-0.0154
4.8528,0.0107
4.8556,-0.0008
4.8583,0.0043
4.8611,-0.023
4.8639,0.0062
4.8667,-0.0113
4.8694,-0.0066
4.8722,0.0024
4.875,0.0018
4.8778,-0.0054
4.8806,-0.0022
4.8833,-0.0099
4.8861,0.0069
4.8889,-0.0095
4.8917,0.0024
4.8944,0.013
4.8972,-0.005
4.9,-0.008
4.9028,0.0007
4.9056,-0.0036
4.9083,-0.0064
4.9111,-0.0302
4.9139,-0.0172
4.9167,-0.0262
4.9194,-0.0495
4.9222,-0.0498
4.925,-0.0315
4.9278,-0.0003
4.9306,0.0269
4.9333,0.1012
4.9361,0.2183
4.9389,0.313
4.9417,0.4146
4.9444,0.521
4.9472,0.5716
4.95,0.658
4.9528,0.7154
4.9556,0.7491
4.9583,0.7724
4.9611,0.7882
4.9639,0.81
4.9667,0.7834
4.9694,0.7554
4.9722,0.7347
4.975,0.6775
4.9778,0.6271
4.9806,0.5458
4.9833,0.4613
4.9861,0.3692
4.9889,0.2718
4.9917,0.1737
4.9944,0.0773
4.9972,0.0036
5.0,-0.0312
5.0028,-0.0538
5.0056,-0.0698
5.0083,-0.092
5.0111,-0.1001
5.0139,-0.1136
5.0167,-0.1286
5.0194,-0.1212
5.0222,-0.1236
5.025,-0.1204
5.0278,-0.1071
5.0306,-0.0672
5.0333,-0.0575
5.0361,-0.045
5.0389,-0.0088
5.0417,-0.0003
5.0444,0.0008
5.0472,-0.013
5.05,0.0172
5.0528,-0.015
5.0556,0.011
5.0583,0.0004
5.0611,-0.0046
5.0639,-0.0222
5.0667,-0.0058
5.0694,-0.0078
5.0722,-0.0091
5.075,0.0014
5.0778,0.0005
5.0806,-0.003
5.0833,-0.0048
5.0861,0.0205
5.0889,0.0028
5.0917,0.0111
5.0944,-0.0184
5.0972,-0.0199
5.1,-0.0052
5.1028,-0.0027
5.1056,-0.0089
5.1083,-0.0173
5.1111,0.0138
5.1139,0.0051
5.1167,0.0188
5.1194,0.0051
5.1222,0.0056
5.125,-0.011
5.1278,-0.0069
5.1306,-0.0071
5.1333,-0.0055
5.1361,-0.0042
5.1389,0.0069
5.1417,0.006
5.1444,-0.002
5.1472,0.0083
5.15,-0.0131
5.1528,0.0082
5.1556,0.0013
5.1583,-0.0028
5.1611,0.0206
5.1639,0.017
5.1667,0.0325
5.1694,0.0419
5.1722,0.0469
5.175,0.0282
5.1778,0.0556
5.1806,0.0625
5.1833,0.0643
5.1861,0.0825
5.1889,0.0722
5.1917,0.0867
5.1944,0.1024
5.1972,0.0808
5.2,0.1006
5.2028,0.0998
5.2056,0.1124
5.2083,0.1088
5.2111,0.1112
5.2139,0.1105
5.2167,0.1135
5.2194,0.1245
5.2222,0.131
5.225,0.1389
5.2278,0.1308
5.2306,0.1436
5.2333,0.1346
5.2361,0.1717
5.2389,0.1496
5.2417,0.1397
5.2444,0.1555
5.2472,0.1403
5.25,0.1564
5.2528,0.1571
5.2556,0.1381
5.2583,0.1401
5.2611,0.1479
5.2639,0.1382
5.2667,0.1494
5.2694,0.1617
5.2722,0.1607
5.275,0.1421
5.2778,0.1639
5.2806,0.1431
5.2833,0.1372
5.2861,0.1548
5.2889,0.1351
5.2917,0.1289
5.2944,0.1292
5.2972,0.1325
5.3,0.1396
5.3028,0.126
5.3056,0.1156
5.3083,0.1171
5.3111,0.129
5.3139,0.1088
5.3167,0.1098
5.3194,0.1026
5.3222,0.1039
5.325,0.0822
5.3278,0.0958
5.3306,0.0876
5.3333,0.072
5.3361,0.0708
5.3389,0.0622
5.3417,0.0509
5.3444,0.056
5.3472,0.0535
5.35,0.0583
5.3528,0.0489
5.3556,0.0397
5.3583,0.0445
5.3611,0.0189
5.3639,0.0347
5.3667,0.0113
5.3694,0.0213
5.3722,0.0041
5.375,0.0084
5.3778,0.0087
5.3806,0.0071
5.3833,-0.0115
5.3861,-0.0103
5.3889,-0.014
5.3917,0.0076
5.3944,0.004
5.3972,-0.0126
5.4,-0.0047
5.4028,-0.0041
5.4056,0.0035
5.4083,-0.0067
5.4111,0.0076
5.4139,0.0068
5.4167,0.0046
5.4194,-0.0108
5.4222,-0.0117
5.425,0.0054
5.4278,-0.0074
5.4306,-0.0092
5.4333,0.0069
5.4361,0.008
5.4389,0.0239
5.4417,-0.0048
5.4444,-0.004
5.4472,0.0205
5.45,0.0117
5.4528,-0.0093
5.4556,0.0045
5.4583,0.0028
5.4611,-0.0129
5.4639,0.0003
5.4667,-0.012
5.4694,-0.0048
5.4722,0.004
5.475,0.0114
5.4778,0.0037
5.4806,0.0046
5.4833,-0.0076
5.4861,-0.0089
5.4889,0.0002
5.4917,0.0092
5.4944,-0.0078
5.4972,0.0155
5.5,-0.0002
5.5028,-0.0159
5.5056,0.0056
5.5083,-0.0121
5.5111,-0.0017
5.5139,-0.0145
5.5167,-0.0043
5.5194,-0.0029
5.5222,0.0104
5.525,0.0134
5.5278,-0.0103
5.5306,0.0031
5.5333,0.0014
5.5361,0.0092
5.5389,-0.0112
5.5417,0.0106
5.5444,0.0154
5.5472,-0.0016
5.55,-0.0182
5.5528,-0.0138
5.5556,-0.0016
5.5583,-0.0042
5.5611,0.0138
5.5639,-0.0129
5.5667,0.0096
5.5694,-0.015
5.5722,-0.0023
5.575,-0.0009
5.5778,0.0009
5.5806,-0.0012
5.5833,-0.0005
5.5861,0.0147
5.5889,0.0024
5.5917,-0.0257
5.5944,0.0124
5.5972,-0.0028
5.6,0.0066
5.6028,0.0216
5.6056,0.0005
5.6083,-0.017
5.6111,0.0082
5.6139,0.0011
5.6167,0.0058
5.6194,-0.0101
5.6222,0.0048
5.625,-0.0013
5.6278,0.0064
5.6306,-0.0063
5.6333,-0.0187
5.6361,0.0167
5.6389,0.0032
5.6417,0.0095
5.6444,0.0046
5.6472,-0.0075
5.65,-0.0024
5.6528,0.0029
5.6556,-0.0072
5.6583,0.0041
5.6611,0.0098
5.6639,0.0011
5.6667,-0.0069
5.6694,-0.0177
5.6722,0.0136
5.675,0.0195
5.6778,-0.005
5.6806,-0.0066
5.6833,-0.0028
5.6861,0.0226
5.6889,-0.0166
5.6917,0.0034
5.6944,-0.0047
5.6972,0.0081
5.7,0.0042
5.7028,-0.0041
5.7056,-0.0044
5.7083,-0.0003
5.7111,0.0054
5.7139,0.0172
5.7167,-0.0053
5.7194,-0.0073
5.7222,-0.0054
5.725,0.0153
5.7278,0.0018
5.7306,0.0201
5.7333,0.0004
5.7361,0.0223
5.7389,0.0159
5.7417,-0.0056
5.7444,0.0034
5.7472,-0.0034
5.75,0.0023
5.7528,-0.0087
5.7556,0.0072
5.7583,0.0054
5.7611,-0.0092
5.7639,0.0
5.7667,-0.0075
5.7694,0.0101
5.7722,-0.0284
5.775,-0.0133
5.7778,-0.0159
5.7806,-0.0084
5.7833,-0.0026
5.7861,-0.007
5.7889,0.0178
5.7917,0.0042
5.7944,0.0147
5.7972,0.0227
5.8,0.025
5.8028,0.0449
5.8056,0.0237
5.8083,0.0446
5.8111,0.0267
5.8139,0.0614
5.8167,0.0753
5.8194,0.0485
5.8222,0.0526
5.825,0.0482
5.8278,0.0624
5.8306,0.0576
5.8333,0.0747
5.8361,0.0859
5.8389,0.0699
5.8417,0.0769
5.8444,0.0776
5.8472,0.0902
5.85,0.0751
5.8528,0.0837
5.8556,0.0904
5.8583,0.0727
5.8611,0.0945
5.8639,0.0887
5.8667,0.087
5.8694,0.0893
5.8722,0.078
5.875,0.07
5.8778,0.0599
5.8806,0.0729
5.8833,0.0591
5.8861,0.0547
5.8889,0.0794
5.8917,0.0656
5.8944,0.039
5.8972,0.0566
5.9,0.0389
5.9028,0.0359
5.9056,0.0245
5.9083,0.0417
5.9111,0.0371
5.9139,0.0094
5.9167,0.0161
5.9194,0.0019
5.9222,0.0218
5.925,0.0082
5.9278,-0.0154
5.9306,-0.0175
5.9333,-0.0179
5.9361,-0.0011
5.9389,-0.007
5.9417,-0.024
5.9444,-0.014
5.9472,-0.0089
5.95,0.0175
5.9528,0.0025
5.9556,-0.021
5.9583,0.0033
5.9611,-0.0111
5.9639,0.007
5.9667,-0.0094
5.9694,-0.0069
5.9722,-0.0061
5.975,0.0077
5.9778,-0.0013
5.9806,0.0067
5.9833,-0.0007
5.9861,0.0193
5.9889,0.0183
5.9917,-0.0228
5.9944,-0.0121
5.9972,-0.0408
6.0,-0.0416
6.0028,-0.0615
6.0056,-0.0202
6.0083,0.0017
6.0111,0.0772
6.0139,0.1954
6.0167,0.3217
6.0194,0.4212
6.0222,0.5
6.025,0.5843
6.0278,0.6521
6.0306,0.7259
6.0333,0.754
6.0361,0.7791
6.0389,0.7933
6.0417,0.8239
6.0444,0.7652
6.0472,0.722
6.05,0.6953
6.0528,0.6117
6.0556,0.5411
6.0583,0.4364
6.0611,0.331
6.0639,0.2515
6.0667,0.1187
6.0694,0.0138
6.0722,-0.0246
6.075,-0.0366
6.0778,-0.0703
6.0806,-0.0886
6.0833,-0.1048
6.0861,-0.1286
6.0889,-0.1336
6.0917,-0.1314
6.0944,-0.1076
6.0972,-0.1025
6.1,-0.0744
6.1028,-0.073
6.1056,-0.0262
6.1083,-0.0312
6.1111,-0.0048
6.1139,0.0128
6.1167,-0.0118
6.1194,-0.0002
6.1222,-0.0114
6.125,0.0079
6.1278,-0.0212
6.1306,0.0005
6.1333,0.0013
6.1361,0.0135
6.1389,-0.0002
6.1417,-0.0107
6.1444,0.0063
6.1472,-0.0121
6.15,0.0009
6.1528,0.0002
6.1556,-0.0231
6.1583,0.0013
6.1611,-0.0109
6.1639,-0.0099
6.1667,0.0076
6.1694,-0.0136
6.1722,0.0085
6.175,-0.0024
6.1778,-0.0089
6.1806,0.0
6.1833,-0.0159
6.1861,-0.0024
6.1889,0.0073
6.1917,-0.0024
6.1944,-0.0095
6.1972,-0.0072
6.2,0.0116
6.2028,-0.0052
6.2056,0.0021
6.2083,-0.0029
6.2111,0.0011
6.2139,0.0223
6.2167,0.0084
6.2194,0.0189
6.2222,0.011
6.225,0.0253
6.2278,0.0134
6.2306,0.0306
6.2333,0.0605
6.2361,0.0625
6.2389,0.059
6.2417,0.0723
6.2444,0.0698
6.2472,0.0834
6.25,0.0792
6.2528,0.08
6.2556,0.0898
6.2583,0.0897
6.2611,0.0974
6.2639,0.1294
6.2667,0.1221
6.2694,0.126
6.2722,0.1476
6.275,0.1324
6.2778,0.1195
6.2806,0.1388
6.2833,0.1286
6.2861,0.15
6.2889,0.1366
6.2917,0.1571
6.2944,0.1351
6.2972,0.1192
6.3,0.1526
6.3028,0.1489
6.3056,0.1522
6.3083,0.1521
6.3111,0.1431
6.3139,0.1355
6.3167,0.1528
6.3194,0.1491
6.3222,0.1406
6.325,0.1702
6.3278,0.1498
6.3306,0.1356
6.3333,0.1305
6.3361,0.135
6.3389,0.1322
6.3417,0.1352
6.3444,0.1339
6.3472,0.1286
6.35,0.1147
6.3528,0.1306
6.3556,0.1076
6.3583,0.118
6.3611,0.0984
6.3639,0.0958
6.3667,0.1086
6.3694,0.1083
6.3722,0.1079
6.375,0.0839
6.3778,0.0776
6.3806,0.066
6.3833,0.0629
6.3861,0.0556
6.3889,0.0564
6.3917,0.0399
6.3944,0.0425
6.3972,0.0441
6.4,0.0149
6.4028,0.0294
6.4056,0.0161
6.4083,0.0047
6.4111,-0.003
6.4139,-0.0037
6.4167,-0.0063
6.4194,-0.001
6.4222,-0.0063
6.425,0.0044
6.4278,0.0075
6.4306,0.0143
6.4333,0.0036
6.4361,-0.0157
6.4389,0.0007
6.4417,0.003
6.4444,0.0087
6.4472,0.0001
6.45,-0.0149
6.4528,-0.0013
6.4556,-0.0092
6.4583,0.0139
6.4611,0.0235
6.4639,0.0003
6.4667,-0.0108
6.4694,-0.0094
6.4722,-0.013
6.475,0.0014
6.4778,0.0079
6.4806,0.0028
6.4833,-0.0016
6.4861,-0.0162
6.4889,0.003
6.4917,0.0358
6.4944,0.0019
6.4972,-0.01
6.5,0.0204
6.5028,0.006
6.5056,0.0088
6.5083,-0.0238
6.5111,0.0061
6.5139,-0.0153
6.5167,-0.0005
6.5194,0.0006
6.5222,0.0131
6.525,0.0044
6.5278,0.0016
6.5306,0.0086
6.5333,0.0053
6.5361,0.0064
6.5389,-0.0016
6.5417,-0.0084
6.5444,-0.0133
6.5472,-0.0077
6.55,-0.0065
6.5528,0.0007
6.5556,-0.0102
6.5583,-0.0044
6.5611,-0.0064
6.5639,-0.0087
6.5667,-0.0032
6.5694,0.0038
6.5722,0.0038
6.575,0.001
6.5778,-0.0097
6.5806,0.0031
6.5833,0.0014
6.5861,-0.0043
6.5889,0.0044
6.5917,0.0114
6.5944,-0.0013
6.5972,-0.0127
6.6,-0.0152
6.6028,0.0116
6.6056,-0.0132
6.6083,-0.0142
6.6111,-0.0113
6.6139,0.014
6.6167,0.003
6.6194,0.0064
6.6222,0.0072
6.625,0.0077
6.6278,0.0201
6.6306,-0.0056
6.6333,-0.0024
6.6361,0.0159
6.6389,0.0007
6.6417,-0.009
6.6444,0.0009
6.6472,-0.0055
6.65,0.0051
6.6528,-0.0022
6.6556,-0.0046
6.6583,-0.0029
6.6611,-0.015
6.6639,-0.0069
6.6667,0.0049
6.6694,0.0087
6.6722,-0.0066
6.675,-0.0192
6.6778,-0.0118
6.6806,0.0003
6.6833,0.0041
6.6861,-0.0021
6.6889,-0.0043
6.6917,0.0034
6.6944,-0.0159
6.6972,-0.0033
6.7,-0.0008
6.7028,0.0049
6.7056,0.0008
6.7083,-0.0088
6.7111,-0.0167
6.7139,-0.0007
6.7167,0.0011
6.7194,0.0049
6.7222,0.0013
6.725,-0.007
6.7278,-0.011
6.7306,-0.0112
6.7333,-0.0117
6.7361,-0.007
6.7389,-0.0104
6.7417,0.0007
6.7444,0.0023
6.7472,0.0063
6.75,-0.0058
6.7528,-0.0049
6.7556,0.0073
6.7583,-0.0097
6.7611,0.0199
6.7639,0.0073
6.7667,-0.0286
6.7694,-0.0055
6.7722,-0.008
6.775,0.0243
6.7778,0.0046
6.7806,-0.0068
6.7833,-0.0071
6.7861,0.0021
6.7889,-0.0058
6.7917,0.0083
6.7944,0.0218
6.7972,0.028
6.8,0.0037
6.8028,0.0384
6.8056,-0.0025
6.8083,0.0582
6.8111,0.0544
6.8139,0.0759
6.8167,0.0499
6.8194,0.0566
6.8222,0.0721
6.825,0.0715
6.8278,0.0638
6.8306,0.0806
6.8333,0.0607
6.8361,0.0632
6.8389,0.0739
6.8417,0.0621
6.8444,0.0579
6.8472,0.0904
6.85,0.0907
6.8528,0.0845
6.8556,0.0833
6.8583,0.0777
6.8611,0.0734
6.8639,0.0698
6.8667,0.0618
6.8694,0.0859
6.8722,0.0516
6.875,0.072
6.8778,0.0643
6.8806,0.0525
6.8833,0.0591
6.8861,0.0449
6.8889,0.0493
6.8917,0.0322
6.8944,0.0434
6.8972,0.034
6.9,0.0191
6.9028,0.0124
6.9056,-0.0019
6.9083,0.0154
6.9111,-0.0101
6.9139,0.0061
6.9167,-0.0004
6.9194,0.002
6.9222,0.0194
6.925,-0.0087
6.9278,-0.0072
6.9306,0.0076
6.9333,0.0087
6.9361,-0.0113
6.9389,-0.0037
6.9417,-0.0031
6.9444,-0.0117
6.9472,0.0037
6.95,-0.002
6.9528,-0.0012
6.9556,-0.0081
6.9583,-0.0075
6.9611,-0.0121
6.9639,-0.0035
6.9667,-0.0026
6.9694,-0.03
6.9722,-0.0164
6.975,-0.0395
6.9778,-0.0374
6.9806,-0.0224
6.9833,-0.0116
6.9861,0.1208
6.9889,0.2328
6.9917,0.3392
6.9944,0.4599
6.9972,0.553
7.0,0.6552
7.0028,0.7137
7.0056,0.767
7.0083,0.7826
7.0111,0.8063
7.0139,0.7941
7.0167,0.7495
7.0194,0.6921
7.0222,0.6457
7.025,0.5257
7.0278,0.4508
7.0306,0.3269
7.0333,0.2165
7.0361,0.08
7.0389,-0.0117
7.0417,-0.048
7.0444,-0.0734
7.0472,-0.0843
7.05,-0.1223
7.0528,-0.1125
7.0556,-0.1138
7.0583,-0.1349
7.0611,-0.0976
7.0639,-0.0798
7.0667,-0.0762
7.0694,-0.0576
7.0722,-0.0176
7.075,-0.0087
7.0778,-0.006
7.0806,0.0028
7.0833,-0.0078
7.0861,0.0165
7.0889,-0.0072
7.0917,-0.0082
7.0944,-0.0021
7.0972,0.0058
7.1,-0.0047
7.1028,0.0103
7.1056,-0.0099
7.1083,-0.0198
7.1111,-0.0126
7.1139,-0.0045
7.1167,-0.0002
7.1194,-0.0005
7.1222,-0.0166
7.125,-0.0137
7.1278,-0.012
7.1306,-0.0021
7.1333,-0.0036
7.1361,-0.0146
7.1389,-0.0135
7.1417,0.0009
7.1444,0.0105
7.1472,0.0021
7.15,-0.003
7.1528,0.0027
7.1556,-0.0015
7.1583,0.0043
7.1611,0.0037
7.1639,-0.0028
7.1667,0.0069
7.1694,0.0117
7.1722,0.0208
7.175,0.0163
7.1778,0.0419
7.1806,0.0538
7.1833,0.0448
7.1861,0.0431
7.1889,0.0575
7.1917,0.0721
7.1944,0.09
7.1972,0.0869
7.2,0.0883
7.2028,0.1025
7.2056,0.0831
7.2083,0.1011
7.2111,0.1084
7.2139,0.1052
7.2167,0.1218
7.2194,0.1341
7.2222,0.127
7.225,0.1564
7.2278,0.1367
7.2306,0.135
7.2333,0.129
7.2361,0.1318
7.2389,0.1549
7.2417,0.1352
7.2444,0.1611
7.2472,0.1515
7.25,0.1397
7.2528,0.1357
7.2556,0.1424
7.2583,0.1753
7.2611,0.1427
7.2639,0.1374
7.2667,0.1419
7.2694,0.148
7.2722,0.1282
7.275,0.151
7.2778,0.1295
7.2806,0.1476
7.2833,0.1289
7.2861,0.1371
7.2889,0.1119
7.2917,0.116
7.2944,0.1047
7.2972,0.0907
7.3,0.0969
7.3028,0.105
7.3056,0.0961
7.3083,0.0818
7.3111,0.0943
7.3139,0.0613
7.3167,0.0749
7.3194,0.078
7.3222,0.0625
7.325,0.0527
7.3278,0.0519
7.3306,0.0405
7.3333,0.013
7.3361,0.0179
7.3389,0.0281
7.3417,0.004
7.3444,0.0059
7.3472,-0.0083
7.35,-0.0162
7.3528,0.0066
7.3556,-0.0066
7.3583,0.0209
7.3611,0.0054
7.3639,0.0048
7.3667,0.0079
7.3694,-0.0099
7.3722,0.0054
7.375,0.0114
7.3778,0.0114
7.3806,-0.0031
7.3833,-0.0101
7.3861,0.0234
7.3889,0.0086
7.3917,-0.0028
7.3944,0.0054
7.3972,-0.0164
7.4,0.0124
7.4028,-0.005
7.4056,0.0112
7.4083,-0.019
7.4111,-0.0013
7.4139,-0.0163
7.4167,-0.0032
7.4194,0.0118
7.4222,0.0123
7.425,0.0054
7.4278,0.0076
7.4306,0.001
7.4333,0.0002
7.4361,-0.0144
7.4389,0.0228
7.4417,-0.0027
7.4444,0.0052
7.4472,-0.0112
7.45,0.0122
7.4528,-0.007
7.4556,0.0171
7.4583,-0.0008
7.4611,0.009
7.4639,-0.0028
7.4667,0.0072
7.4694,-0.0094
7.4722,-0.0049
7.475,0.0082
7.4778,0.0042
7.4806,-0.004
7.4833,-0.0154
7.4861,-0.009
7.4889,-0.0148
7.4917,0.0028
7.4944,0.0158
7.4972,-0.0127
7.5,-0.0125
7.5028,-0.0087
7.5056,0.0005
7.5083,-0.0061
7.5111,0.0057
7.5139,0.0185
7.5167,-0.0182
7.5194,-0.0014
7.5222,-0.011
7.525,-0.0037
7.5278,-0.0162
7.5306,-0.0103
7.5333,-0.0081
7.5361,-0.0015
7.5389,-0.013
7.5417,-0.0001
7.5444,0.0106
7.5472,-0.0075
7.55,0.0143
7.5528,-0.0027
7.5556,0.0041
7.5583,0.0049
7.5611,0.0074
7.5639,-0.0035
7.5667,0.0056
7.5694,0.0161
7.5722,0.0031
7.575,-0.0036
7.5778,-0.0064
7.5806,-0.0076
7.5833,0.0031
7.5861,0.0034
7.5889,0.0067
7.5917,0.0006
7.5944,0.0071
7.5972,0.0059
7.6,-0.0104
7.6028,0.004
7.6056,-0.0065
7.6083,0.0029
7.6111,0.0162
7.6139,0.0147
7.6167,0.0036
7.6194,0.007
7.6222,0.005
7.625,-0.0091
7.6278,0.0111
7.6306,-0.0116
7.6333,0.0076
7.6361,0.0021
7.6389,0.0156
7.6417,0.0119
7.6444,0.0283
7.6472,-0.0065
7.65,0.0033
7.6528,-0.0055
7.6556,-0.0007
7.6583,-0.0046
7.6611,0.0065
7.6639,0.0121
7.6667,0.0029
7.6694,-0.0208
7.6722,-0.004
7.675,-0.0064
7.6778,-0.0127
7.6806,-0.0002
7.6833,0.0109
7.6861,-0.0065
7.6889,0.0155
7.6917,0.0065
7.6944,0.0009
7.6972,-0.0212
7.7,0.0015
7.7028,0.0052
7.7056,-0.0053
7.7083,0.036
7.7111,0.027
7.7139,0.0248
7.7167,0.0274
7.7194,0.021
7.7222,0.0511
7.725,0.029
7.7278,0.0471
7.7306,0.0288
7.7333,0.0503
7.7361,0.0345
7.7389,0.0564
7.7417,0.0656
7.7444,0.068
7.7472,0.0492
7.75,0.082
7.7528,0.0707
7.7556,0.0791
7.7583,0.0582
7.7611,0.0714
7.7639,0.0723
7.7667,0.0911
7.7694,0.0845
7.7722,0.0675
7.775,0.0812
7.7778,0.0745
7.7806,0.0796
7.7833,0.0896
7.7861,0.0738
7.7889,0.0846
7.7917,0.0608
7.7944,0.073
7.7972,0.0517
7.8,0.0763
7.8028,0.0711
7.8056,0.0836
7.8083,0.072
7.8111,0.0747
7.8139,0.0446
7.8167,0.0418
7.8194,0.0472
7.8222,0.0349
7.825,0.0274
7.8278,0.023
7.8306,0.0399
7.8333,0.0292
7.8361,0.0273
7.8389,0.0198
7.8417,0.0095
7.8444,0.0012
7.8472,0.0232
7.85,0.0027
7.8528,0.0213
7.8556,0.0058
7.8583,-0.003
7.8611,-0.0126
7.8639,0.0061
7.8667,-0.0147
7.8694,0.0003
7.8722,-0.0025
7.875,0.0126
7.8778,-0.0093
7.8806,0.0058
7.8833,0.0013
7.8861,-0.0092
7.8889,-0.0012
7.8917,-0.0167
7.8944,-0.0007
7.8972,0.0119
7.9,-0.0095
7.9028,-0.0167
7.9056,-0.0042
7.9083,-0.014
7.9111,-0.0012
7.9139,0.0019
7.9167,0.0133
7.9194,-0.0063
7.9222,-0.0075
7.925,-0.025
7.9278,-0.0256
7.9306,-0.0202
7.9333,-0.0171
7.9361,-0.0276
7.9389,-0.0223
7.9417,-0.0124
7.9444,0.0141
7.9472,0.1113
7.95,0.2039
7.9528,0.3028
7.9556,0.4076
7.9583,0.509
7.9611,0.5818
7.9639,0.6478
7.9667,0.6952
7.9694,0.7585
7.9722,0.7637
7.975,0.8032
7.9778,0.8066
7.9806,0.7783
7.9833,0.7596
7.9861,0.7115
7.9889,0.6742
7.9917,0.6149
7.9944,0.5549
7.9972,0.4651
8.0,0.385
8.0028,0.2898
8.0056,0.1799
8.0083,0.0919
8.0111,0.0024
8.0139,-0.038
8.0167,-0.0468
8.0194,-0.0607
8.0222,-0.0884
8.025,-0.0964
8.0278,-0.1039
8.0306,-0.1121
8.0333,-0.1163
8.0361,-0.1208
8.0389,-0.1246
8.0417,-0.0908
8.0444,-0.0695
8.0472,-0.0565
8.05,-0.036
8.0528,0.0057
8.0556,0.0015
8.0583,0.0061
8.0611,-0.0021
8.0639,0.0038
8.0667,0.0114
8.0694,-0.0046
8.0722,-0.0149
8.075,-0.0052
8.0778,-0.009
8.0806,-0.0116
8.0833,-0.0053
8.0861,-0.0202
8.0889,0.0011
8.0917,-0.0111
8.0944,0.0058
8.0972,-0.0143
8.1,-0.0068
8.1028,0.0008
8.1056,0.0024
8.1083,0.0054
8.1111,-0.0142
8.1139,-0.0018
8.1167,-0.0117
8.1194,-0.0019
8.1222,0.013
8.125,-0.0045
8.1278,-0.0002
8.1306,-0.0036
8.1333,0.008
8.1361,0.0133
8.1389,0.0129
8.1417,-0.0018
8.1444,-0.0013
8.1472,-0.0037
8.15,0.0045
8.1528,-0.0035
8.1556,-0.0093
8.1583,-0.0193
8.1611,0.004
8.1639,0.0198
8.1667,-0.0008
8.1694,0.0122
8.1722,-0.0077
8.175,0.0178
8.1778,0.0233
8.1806,0.0315
8.1833,0.0431
8.1861,0.0315
8.1889,0.0543
8.1917,0.0554
8.1944,0.0594
8.1972,0.0539
8.2,0.0527
8.2028,0.0756
8.2056,0.067
8.2083,0.0941
8.2111,0.0993
8.2139,0.0812
8.2167,0.0976
8.2194,0.1104
8.2222,0.1306
8.225,0.1116
8.2278,0.1102
8.2306,0.1026
8.2333,0.1106
8.2361,0.1134
8.2389,0.1215
8.2417,0.1285
8.2444,0.1289
8.2472,0.1485
8.25,0.1593
8.2528,0.1358
8.2556,0.1463
8.2583,0.1332
8.2611,0.1502
8.2639,0.1388
8.2667,0.1486
8.2694,0.1462
8.2722,0.1404
8.275,0.1424
8.2778,0.1407
8.2806,0.1382
8.2833,0.1337
8.2861,0.1495
8.2889,0.1602
8.2917,0.1378
8.2944,0.1495
8.2972,0.1551
8.3,0.1405
8.3028,0.1521
8.3056,0.1479
8.3083,0.1034
8.3111,0.1309
8.3139,0.1179
8.3167,0.1202
8.3194,0.1261
8.3222,0.1333
8.325,0.1134
8.3278,0.0978
8.3306,0.1006
8.3333,0.0994
8.3361,0.0828
8.3389,0.0897
8.3417,0.1076
8.3444,0.0836
8.3472,0.0736
8.35,0.0696
8.3528,0.0575
8.3556,0.0472
8.3583,0.0751
8.3611,0.0572
8.3639,0.0466
8.3667,0.0412
8.3694,0.0256
8.3722,0.0369
8.375,0.0425
8.3778,0.0156
8.3806,0.0223
8.3833,0.0016
8.3861,-0.0037
8.3889,-0.0004
8.3917,0.0007
8.3944,-0.0197
8.3972,-0.0108
8.4,-0.0059
8.4028,0.007
8.4056,0.0031
8.4083,-0.0109
8.4111,-0.018
8.4139,0.005
8.4167,0.0019
8.4194,-0.0187
8.4222,0.0084
8.425,-0.0118
8.4278,0.0101
8.4306,0.0084
8.4333,-0.0222
8.4361,-0.0085
8.4389,0.0099
8.4417,0.0156
8.4444,0.0073
8.4472,0.0002
8.45,-0.002
8.4528,-0.0163
8.4556,-0.0035
8.4583,-0.0049
8.4611,-0.0001
8.4639,0.0115
8.4667,-0.0175
8.4694,-0.0058
8.4722,-0.0056
8.475,-0.0049
8.4778,-0.0012
8.4806,-0.0131
8.4833,0.0138
8.4861,0.0146
8.4889,0.006
8.4917,0.0079
8.4944,0.0032
8.4972,-0.0044
8.5,0.0185
8.5028,-0.0047
8.5056,0.0205
8.5083,0.0
8.5111,-0.0062
8.5139,0.0048
8.5167,-0.0072
8.5194,-0.0055
8.5222,-0.0049
8.525,-0.0085
8.5278,-0.011
8.5306,-0.0064
8.5333,-0.0065
8.5361,0.0083
8.5389,-0.0045
8.5417,-0.006
8.5444,0.0054
8.5472,0.0001
8.55,0.0026
8.5528,0.0073
8.5556,0.0108
8.5583,-0.0133
8.5611,0.0151
8.5639,0.0121
8.5667,0.0107
8.5694,-0.0013
8.5722,-0.0052
8.575,0.0103
8.5778,0.001
8.5806,-0.0109
8.5833,0.0007
8.5861,-0.0085
8.5889,0.0047
8.5917,0.003
8.5944,-0.0008
8.5972,0.0141
8.6,0.0061
8.6028,0.014
8.6056,-0.0148
8.6083,0.0129
8.6111,0.0088
8.6139,0.0021
8.6167,-0.0006
8.6194,0.0206
8.6222,0.0017
8.625,-0.0126
8.6278,-0.0196
8.6306,-0.0043
8.6333,0.0062
8.6361,-0.0125
8.6389,-0.0116
8.6417,-0.0037
8.6444,-0.0052
8.6472,-0.011
8.65,0.0004
8.6528,0.016
8.6556,0.0128
8.6583,-0.0157
8.6611,-0.0116
8.6639,-0.0012
8.6667,-0.0102
8.6694,0.0023
8.6722,-0.0132
8.675,0.0054
8.6778,0.0082
8.6806,-0.0005
8.6833,-0.006
8.6861,0.0028
8.6889,-0.0042
8.6917,-0.0024
8.6944,0.0009
8.6972,0.0116
8.7,0.0051
8.7028,-0.0198
8.7056,0.001
8.7083,-0.0058
8.7111,0.0037
8.7139,-0.0054
8.7167,0.0045
8.7194,-0.0068
8.7222,-0.0001
8.725,0.011
8.7278,-0.0009
8.7306,0.0003
8.7333,-0.0106
8.7361,-0.0043
8.7389,-0.0012
8.7417,-0.0117
8.7444,-0.0089
8.7472,-0.0056
8.75,-0.0244
8.7528,-0.0095
8.7556,0.0077
8.7583,-0.0074
8.7611,0.0051
8.7639,0.0005
8.7667,-0.0058
8.7694,0.0006
8.7722,0.0006
8.775,0.0078
8.7778,-0.0019
8.7806,-0.0036
8.7833,0.0018
8.7861,0.0064
8.7889,-0.0083
8.7917,0.0032
8.7944,-0.0164
8.7972,-0.0019
8.8,0.0183
8.8028,0.0018
8.8056,0.0241
8.8083,0.004
8.8111,0.0108
8.8139,0.0411
8.8167,0.0248
8.8194,0.0234
8.8222,0.0311
8.825,0.0352
8.8278,0.0504
8.8306,0.0277
8.8333,0.0594
8.8361,0.0669
8.8389,0.044
8.8417,0.0404
8.8444,0.0537
8.8472,0.0805
8.85,0.0645
8.8528,0.0644
8.8556,0.0638
8.8583,0.047
8.8611,0.08
8.8639,0.0897
8.8667,0.0732
8.8694,0.0734
8.8722,0.0896
8.875,0.0748
8.8778,0.0665
8.8806,0.0732
8.8833,0.0835
8.8861,0.1018
8.8889,0.0857
8.8917,0.0666
8.8944,0.0708
8.8972,0.0544
8.9,0.0681
8.9028,0.0738
8.9056,0.0922
8.9083,0.0573
8.9111,0.0493
8.9139,0.0615
8.9167,0.0615
8.9194,0.0589
8.9222,0.0229
8.925,0.0301
8.9278,0.0405
8.9306,0.0281
8.9333,0.0363
8.9361,0.0109
8.9389,-0.0021
8.9417,0.0169
8.9444,0.0059
8.9472,0.0007
8.95,-0.0108
8.9528,-0.0208
8.9556,-0.0026
8.9583,0.0103
8.9611,0.0068
8.9639,-0.0049
8.9667,-0.0166
8.9694,-0.004
8.9722,-0.0086
8.975,-0.0162
8.9778,0.0104
8.9806,0.0028
8.9833,-0.0261
8.9861,-0.0055
8.9889,0.0075
8.9917,-0.0209
8.9944,-0.0132
8.9972,0.0033
9.0,0.0167
9.0028,-0.0129
9.0056,0.0084
9.0083,0.0022
9.0111,-0.0354
9.0139,-0.0206
9.0167,-0.0417
9.0194,-0.0424
9.0222,-0.0353
9.025,-0.0322
9.0278,-0.0222
9.0306,-0.0044
9.0333,0.0877
9.0361,0.208
9.0389,0.3218
9.0417,0.414
9.0444,0.5028
9.0472,0.5926
9.05,0.6647
9.0528,0.7222
9.0556,0.7563
9.0583,0.8011
9.0611,0.7975
9.0639,0.7936
9.0667,0.78
9.0694,0.7415
9.0722,0.7105
9.075,0.6282
9.0778,0.58
9.0806,0.4776
9.0833,0.3807
9.0861,0.2849
9.0889,0.1627
9.0917,0.0608
9.0944,-0.0111
9.0972,-0.0337
9.1,-0.0546
9.1028,-0.082
9.1056,-0.0825
9.1083,-0.1056
9.1111,-0.1258
9.1139,-0.1192
9.1167,-0.1177
9.1194,-0.1298
9.1222,-0.107
9.125,-0.0923
9.1278,-0.0486
9.1306,-0.0239
9.1333,-0.0031
9.1361,-0.0063
9.1389,-0.0026
9.1417,-0.0029
9.1444,-0.0026
9.1472,-0.0048
9.15,-0.0084
9.1528,-0.0024
9.1556,0.013
9.1583,0.0026
9.1611,-0.0114
9.1639,0.0171
9.1667,0.0042
9.1694,0.0101
9.1722,-0.0136
9.175,0.0138
9.1778,-0.0133
9.1806,0.0011
9.1833,-0.014
9.1861,0.0057
9.1889,0.0098
9.1917,0.0112
9.1944,-0.0181
9.1972,0.0049
9.2,-0.0066
9.2028,-0.0032
9.2056,-0.0011
9.2083,0.0127
9.2111,0.0033
9.2139,-0.0008
9.2167,-0.006
9.2194,-0.002
9.2222,-0.0117
9.225,-0.0203
9.2278,0.0116
9.2306,0.0018
9.2333,0.0011
9.2361,-0.0097
9.2389,-0.0066
9.2417,0.0267
9.2444,-0.0009
9.2472,0.0034
9.25,0.0306
9.2528,0.0449
9.2556,0.0335
9.2583,0.0381
9.2611,0.0498
9.2639,0.0444
9.2667,0.074
9.2694,0.0693
9.2722,0.0649
9.275,0.0734
9.2778,0.1041
9.2806,0.0839
9.2833,0.0888
9.2861,0.0951
9.2889,0.0969
9.2917,0.1183
9.2944,0.1158
9.2972,0.1187
9.3,0.1157
9.3028,0.1279
9.3056,0.1084
9.3083,0.1456
9.3111,0.1243
9.3139,0.1333
9.3167,0.1292
9.3194,0.1441
9.3222,0.1353
9.325,0.1551
9.3278,0.1565
9.3306,0.1476
9.3333,0.1417
9.3361,0.1396
9.3389,0.1464
9.3417,0.148
9.3444,0.166
9.3472,0.1567
9.35,0.1536
9.3528,0.1393
9.3556,0.1642
9.3583,0.1462
9.3611,0.1557
9.3639,0.1397
9.3667,0.136
9.3694,0.1159
9.3722,0.1206
9.375,0.1314
9.3778,0.1205
9.3806,0.111
9.3833,0.1151
9.3861,0.1207
9.3889,0.1207
9.3917,0.1242
9.3944,0.1059
9.3972,0.1158
9.4,0.1012
9.4028,0.0918
9.4056,0.0985
9.4083,0.0864
9.4111,0.0779
9.4139,0.064
9.4167,0.071
9.4194,0.0567
9.4222,0.0507
9.425,0.0509
9.4278,0.0269
9.4306,0.0524
9.4333,0.0098
9.4361,0.0294
9.4389,0.023
9.4417,0.0237
9.4444,0.0101
9.4472,-0.0009
9.45,0.0158
9.4528,0.0246
9.4556,0.0078
9.4583,0.0088
9.4611,-0.0158
9.4639,-0.0126
9.4667,0.0052
9.4694,-0.0121
9.4722,-0.0073
9.475,0.007
9.4778,0.019
9.4806,-0.0172
9.4833,0.0072
9.4861,0.0186
9.4889,-0.0116
9.4917,0.0004
9.4944,-0.0052
9.4972,0.0023
9.5,-0.0058
9.5028,-0.0001
9.5056,-0.0237
9.5083,-0.003
9.5111,0.0044
9.5139,0.0101
9.5167,0.0114
9.5194,0.0004
9.5222,0.0015
9.525,0.0001
9.5278,0.0196
9.5306,-0.0131
9.5333,0.0036
9.5361,-0.0048
9.5389,0.0079
9.5417,0.0118
9.5444,0.0005
9.5472,-0.017
9.55,-0.0054
9.5528,0.0075
9.5556,-0.0007
9.5583,0.0076
9.5611,-0.0196
9.5639,-0.003
9.5667,-0.0093
9.5694,0.0178
9.5722,0.0136
9.575,0.0035
9.5778,0.0006
9.5806,0.0074
9.5833,-0.0117
9.5861,0.0036
9.5889,0.0062
9.5917,0.0151
9.5944,0.0097
9.5972,-0.0026
9.6,0.0163
9.6028,0.0081
9.6056,0.0041
9.6083,-0.0143
9.6111,0.0207
9.6139,0.0001
9.6167,0.0029
9.6194,-0.0034
9.6222,0.0185
9.625,0.0017
9.6278,0.0015
9.6306,0.0003
9.6333,-0.0021
9.6361,0.005
9.6389,-0.0003
9.6417,0.0009
9.6444,0.0062
9.6472,-0.01
9.65,-0.004
9.6528,0.0003
9.6556,0.0065
9.6583,-0.0106
9.6611,0.0091
9.6639,-0.0184
9.6667,-0.0074
9.6694,0.0092
9.6722,0.0161
9.675,-0.0023
9.6778,0.0176
9.6806,0.0034
9.6833,0.0057
9.6861,-0.0021
9.6889,-0.0043
9.6917,0.012
9.6944,0.003
9.6972,-0.0059
9.7,-0.0053
9.7028,0.0057
9.7056,-0.0093
9.7083,-0.0066
9.7111,0.0089
9.7139,-0.0062
9.7167,0.0028
9.7194,-0.0225
9.7222,-0.0003
9.725,0.0022
9.7278,0.0103
9.7306,0.0148
9.7333,-0.0085
9.7361,-0.0027
9.7389,-0.0148
9.7417,0.0059
9.7444,-0.0026
9.7472,-0.0111
9.75,0.0168
9.7528,0.014
9.7556,0.0256
9.7583,-0.0011
9.7611,-0.0136
9.7639,0.0174
9.7667,-0.0035
9.7694,0.0074
9.7722,0.0024
9.775,-0.0003
9.7778,-0.0242
9.7806,0.0018
9.7833,0.0023
9.7861,0.0073
9.7889,-0.0036
9.7917,0.0099
9.7944,-0.0005
9.7972,-0.0056
9.8,0.0071
9.8028,0.0204
9.8056,-0.0002
9.8083,-0.0097
9.8111,-0.0114
9.8139,-0.0112
9.8167,0.0034
9.8194,0.016
9.8222,0.0029
9.825,-0.0055
9.8278,-0.0005
9.8306,0.0184
9.8333,0.0002
9.8361,0.0101
9.8389,0.0029
9.8417,-0.013
9.8444,0.0035
9.8472,-0.0144
9.85,-0.0042
9.8528,-0.004
9.8556,0.003
9.8583,0.0085
9.8611,0.0224
9.8639,0.0171
9.8667,0.0269
9.8694,0.0224
9.8722,0.0267
9.875,0.0413
9.8778,0.033
9.8806,0.0479
9.8833,0.0456
9.8861,0.0371
9.8889,0.0724
9.8917,0.0401
9.8944,0.0398
9.8972,0.0516
9.9,0.0727
9.9028,0.0763
9.9056,0.0798
9.9083,0.0656
9.9111,0.0507
9.9139,0.0709
9.9167,0.067
9.9194,0.0868
9.9222,0.0675
9.925,0.0645
9.9278,0.0917
9.9306,0.0803
9.9333,0.0656
9.9361,0.0843
9.9389,0.0841
9.9417,0.0791
9.9444,0.0787
9.9472,0.0709
9.95,0.0765
9.9528,0.0846
9.9556,0.1011
9.9583,0.0652
9.9611,0.0793
9.9639,0.0789
9.9667,0.0762
9.9694,0.0614
9.9722,0.0792
9.975,0.0644
9.9778,0.0545
9.9806,0.0639
9.9833,0.0523
9.9861,0.048
9.9889,0.0555
9.9917,0.0446
9.9944,0.0396
9.9972,0.0342
10.0,0.0334
10.0028,0.0208
10.0056,0.0097
10.0083,0.0297
10.0111,0.0362
10.0139,0.0163
10.0167,-0.0013
10.0194,0.0084
10.0222,0.0077
10.025,0.0003
10.0278,0.0155
10.0306,-0.0036
10.0333,0.0234
10.0361,-0.003
10.0389,-0.0056
10.0417,0.0043
10.0444,-0.0042
10.0472,-0.0065
10.05,-0.0021
10.0528,-0.0118
10.0556,-0.0026
10.0583,-0.0029
10.0611,0.0207
10.0639,-0.018
10.0667,-0.0138
10.0694,-0.0051
10.0722,0.0095
10.075,-0.0111
10.0778,-0.01
10.0806,-0.0112
10.0833,-0.0127
10.0861,-0.0053
10.0889,0.0148
10.0917,-0.0081
10.0944,-0.0055
10.0972,-0.0007
10.1,-0.0168
10.1028,-0.0355
10.1056,-0.0481
10.1083,-0.0417
10.1111,-0.0447
10.1139,-0.0346
10.1167,-0.0302
10.1194,-0.0151
10.1222,0.0013
10.125,0.0847
10.1278,0.2117
10.1306,0.2902
10.1333,0.3806
10.1361,0.4797
10.1389,0.5354
10.1417,0.5949
10.1444,0.68
10.1472,0.717
10.15,0.74
10.1528,0.7723
10.1556,0.7899
10.1583,0.7861
10.1611,0.7857
10.1639,0.775
10.1667,0.7617
10.1694,0.6893
10.1722,0.6553
10.175,0.5961
10.1778,0.5357
10.1806,0.448
10.1833,0.3772
10.1861,0.2905
10.1889,0.1933
10.1917,0.1072
10.1944,0.0171
10.1972,-0.005
10.2,-0.033
10.2028,-0.051
10.2056,-0.0804
10.2083,-0.0941
10.2111,-0.0979
10.2139,-0.0962
10.2167,-0.1281
10.2194,-0.1019
10.2222,-0.122
10.225,-0.1309
10.2278,-0.0903
10.2306,-0.0887
10.2333,-0.056
10.2361,-0.0766
10.2389,-0.0331
10.2417,-0.0144
10.2444,-0.0053
10.2472,-0.0025
10.25,0.0002
10.2528,-0.0081
10.2556,-0.0169
10.2583,0.0077
10.2611,-0.0042
10.2639,-0.0091
10.2667,-0.0185
10.2694,-0.002
10.2722,-0.0042
10.275,-0.0064
10.2778,0.0032
10.2806,0.0137
10.2833,-0.0095
10.2861,0.0118
10.2889,-0.0157
10.2917,0.01
10.2944,-0.0086
10.2972,-0.001
10.3,0.0137
10.3028,-0.0011
10.3056,-0.0056
10.3083,0.0053
10.3111,-0.0026
10.3139,-0.006
10.3167,-0.003
10.3194,0.0071
10.3222,-0.0139
10.325,0.0153
10.3278,-0.0024
10.3306,0.0087
10.3333,-0.0067
10.3361,-0.0059
10.3389,-0.0001
10.3417,-0.0256
10.3444,0.0158
10.3472,0.0131
10.35,0.003
10.3528,0.0172
10.3556,-0.0032
10.3583,0.0173
10.3611,0.0044
10.3639,-0.0179
10.3667,0.0164
10.3694,0.0151
10.3722,0.0214
10.375,0.0021
10.3778,0.0289
10.3806,0.0227
10.3833,0.053
10.3861,0.0358
10.3889,0.0415
10.3917,0.054
10.3944,0.0547
10.3972,0.0698
10.4,0.0461
10.4028,0.0589
10.4056,0.05
10.4083,0.0774
10.4111,0.0807
10.4139,0.0713
10.4167,0.0894
10.4194,0.0936
10.4222,0.1066
10.425,0.1044
10.4278,0.0995
10.4306,0.0992
10.4333,0.1272
10.4361,0.1256
10.4389,0.1258
10.4417,0.1299
10.4444,0.1353
10.4472,0.1402
10.45,0.1296
10.4528,0.1409
10.4556,0.1591
10.4583,0.1311
10.4611,0.1402
10.4639,0.1328
10.4667,0.1315
10.4694,0.1468
10.4722,0.1437
10.475,0.1453
10.4778,0.1451
10.4806,0.1423
10.4833,0.1568
10.4861,0.1378
10.4889,0.1473
10.4917,0.159
10.4944,0.1504
10.4972,0.1269
10.5,0.1376
10.5028,0.1278
10.5056,0.1269
10.5083,0.1556
10.5111,0.1329
10.5139,0.1559
10.5167,0.1453
10.5194,0.1386
10.5222,0.1284
10.525,0.1209
10.5278,0.142
10.5306,0.1257
10.5333,0.1261
10.5361,0.1205
10.5389,0.1225
10.5417,0.1082
10.5444,0.1216
10.5472,0.1061
10.55,0.0986
10.5528,0.0857
10.5556,0.1136
10.5583,0.0938
10.5611,0.1007
10.5639,0.0776
10.5667,0.0935
10.5694,0.0709
10.5722,0.0829
10.575,0.0595
10.5778,0.0503
10.5806,0.0447
10.5833,0.0358
10.5861,0.0407
10.5889,0.0309
10.5917,0.0341
10.5944,0.0506
10.5972,0.0124
10.6,0.0139
10.6028,-0.0019
10.6056,0.0006
10.6083,0.0251
10.6111,-0.0
10.6139,-0.0192
10.6167,-0.0038
10.6194,0.0169
10.6222,0.0026
10.625,-0.0081
10.6278,0.0114
10.6306,0.0063
10.6333,0.0038
10.6361,-0.0016
10.6389,0.0011
10.6417,0.0103
10.6444,0.0062
10.6472,0.0017
10.65,0.0091
10.6528,-0.0019
10.6556,-0.0081
10.6583,0.0097
10.6611,0.0069
10.6639,0.0121
10.6667,0.0076
10.6694,-0.01
10.6722,0.0057
10.675,-0.0068
10.6778,0.0102
10.6806,-0.0013
10.6833,0.0128
10.6861,-0.0135
10.6889,0.0002
10.6917,0.0062
10.6944,0.0004
10.6972,0.007
10.7,0.0096
10.7028,-0.0066
10.7056,0.01
10.7083,-0.0211
10.7111,0.0067
10.7139,0.0003
10.7167,-0.0111
10.7194,0.0046
10.7222,0.0042
10.725,0.0005
10.7278,-0.0137
10.7306,0.006
10.7333,-0.0004
10.7361,-0.004
10.7389,-0.0133
10.7417,0.0023
10.7444,-0.0062
10.7472,-0.0089
10.75,0.0092
10.7528,0.0036
10.7556,-0.0007
10.7583,-0.0045
10.7611,0.0085
10.7639,-0.0098
10.7667,-0.0013
10.7694,0.0113
10.7722,-0.0116
10.775,-0.0117
10.7778,0.0062
10.7806,0.0283
10.7833,0.0084
10.7861,0.0022
10.7889,0.0014
10.7917,0.0181
10.7944,-0.0105
10.7972,0.0187
10.8,0.0139
10.8028,0.0029
10.8056,0.0029
10.8083,-0.0021
10.8111,0.0007
10.8139,0.0019
10.8167,-0.0134
10.8194,-0.0063
10.8222,-0.0159
10.825,-0.0068
10.8278,-0.0016
10.8306,0.0025
10.8333,0.0125
10.8361,-0.0012
10.8389,0.0027
10.8417,0.0025
10.8444,-0.0001
10.8472,0.0032
10.85,-0.0291
10.8528,0.0008
10.8556,-0.0102
10.8583,-0.0025
10.8611,0.0071
10.8639,0.0052
10.8667,-0.0052
10.8694,0.0089
10.8722,-0.0005
10.875,-0.0078
10.8778,0.0029
10.8806,0.0155
10.8833,-0.0045
10.8861,0.005
10.8889,-0.0066
10.8917,-0.0057
10.8944,-0.0076
10.8972,-0.0074
10.9,0.0018
10.9028,0.0138
10.9056,0.0002
10.9083,-0.0118
10.9111,0.0181
10.9139,-0.0006
10.9167,0.0009
10.9194,-0.005
10.9222,0.0019
10.925,-0.0028
10.9278,-0.0125
10.9306,0.0103
10.9333,0.0071
10.9361,0.0006
10.9389,-0.0227
10.9417,-0.0016
10.9444,0.0082
10.9472,-0.0038
10.95,-0.0048
10.9528,-0.011
10.9556,-0.0286
10.9583,0.0135
10.9611,-0.0092
10.9639,-0.0054
10.9667,0.0081
10.9694,-0.0006
10.9722,0.0074
10.975,0.0066
10.9778,-0.0025
10.9806,-0.018
10.9833,-0.0111
10.9861,-0.0129
10.9889,0.0128
10.9917,0.0155
10.9944,0.0034
10.9972,0.01
11.0,0.0154
11.0028,0.0026
11.0056,0.0013
11.0083,-0.0201
11.0111,-0.009
11.0139,-0.0047
11.0167,-0.0064
11.0194,0.0013
11.0222,-0.0051
11.025,0.0057
11.0278,-0.0024
11.0306,0.0001
11.0333,0.0026
11.0361,0.0048
11.0389,-0.0101
11.0417,-0.0093
11.0444,-0.0036
11.0472,-0.0133
11.05,0.005
11.0528,-0.0025
11.0556,-0.0009
11.0583,0.0086
11.0611,-0.0036
11.0639,0.0106
11.0667,-0.008
11.0694,-0.0014
11.0722,0.0092
11.075,0.0167
11.0778,0.0223
11.0806,0.0233
11.0833,0.043
11.0861,0.0229
11.0889,0.0347
11.0917,0.0435
11.0944,0.0351
11.0972,0.073
11.1,0.0465
11.1028,0.0626
11.1056,0.0415
11.1083,0.0582
11.1111,0.0441
11.1139,0.0633
11.1167,0.0737
11.1194,0.0595
11.1222,0.0821
11.125,0.0844
11.1278,0.0832
11.1306,0.0709
11.1333,0.0904
11.1361,0.0764
11.1389,0.0858
11.1417,0.0739
11.1444,0.0772
11.1472,0.0738
11.15,0.0869
11.1528,0.0693
11.1556,0.0702
11.1583,0.0683
11.1611,0.0888
11.1639,0.0688
11.1667,0.0794
11.1694,0.081
11.1722,0.0689
11.175,0.0614
11.1778,0.0665
11.1806,0.0506
11.1833,0.062
11.1861,0.0557
11.1889,0.0474
11.1917,0.051
11.1944,0.0497
11.1972,0.0343
11.2,0.0346
11.2028,0.048
11.2056,0.025
11.2083,0.0375
11.2111,0.0214
11.2139,0.0211
11.2167,0.0213
11.2194,0.0193
11.2222,0.0177
11.225,0.001
11.2278,-0.0003
11.2306,0.0008
11.2333,-0.0015
11.2361,-0.011
11.2389,0.0096
11.2417,-0.0005
11.2444,0.02
11.2472,-0.0019
11.25,0.0195
11.2528,-0.0021
11.2556,-0.0234
11.2583,-0.0144
11.2611,-0.0097
11.2639,0.0043
11.2667,-0.0066
11.2694,0.0075
11.2722,0.0065
11.275,-0.0049
11.2778,0.0071
11.2806,-0.0086
11.2833,0.0098
11.2861,0.0144
11.2889,-0.0042
11.2917,0.0069
11.2944,-0.021
11.2972,-0.0109
11.3,-0.0398
11.3028,-0.042
11.3056,-0.037
11.3083,-0.0356
11.3111,-0.0256
11.3139,-0.0106
11.3167,-0.0138
11.3194,0.0736
11.3222,0.1626
11.325,0.2708
11.3278,0.3621
11.3306,0.4406
11.3333,0.5267
11.3361,0.6026
11.3389,0.676
11.3417,0.7283
11.3444,0.7685
11.3472,0.7914
11.35,0.8073
11.3528,0.7763
11.3556,0.7916
11.3583,0.7646
11.3611,0.7393
11.3639,0.6864
11.3667,0.6114
11.3694,0.5505
11.3722,0.4563
11.375,0.3981
11.3778,0.2877
11.3806,0.2113
11.3833,0.1061
11.3861,0.0129
11.3889,-0.0116
11.3917,-0.0493
11.3944,-0.0889
11.3972,-0.091
11.4,-0.0983
11.4028,-0.1002
11.4056,-0.1134
11.4083,-0.1302
11.4111,-0.1169
11.4139,-0.1166
11.4167,-0.1155
11.4194,-0.0807
11.4222,-0.0684
11.425,-0.0697
11.4278,-0.043
11.4306,0.0001
11.4333,0.0011
11.4361,-0.017
11.4389,-0.0028
11.4417,-0.0014
11.4444,0.0129
11.4472,-0.0044
11.45,0.0017
11.4528,-0.017
11.4556,0.0091
11.4583,-0.0065
11.4611,-0.0058
11.4639,0.0052
11.4667,-0.0123
11.4694,0.0057
11.4722,-0.0174
11.475,0.0158
11.4778,0.0042
11.4806,0.0029
11.4833,0.0066
11.4861,0.0051
11.4889,0.0024
11.4917,0.0175
11.4944,0.0152
11.4972,-0.0026
11.5,0.0093
11.5028,0.0031
11.5056,-0.0045
11.5083,0.0066
11.5111,-0.023
11.5139,0.0019
11.5167,-0.0105
11.5194,0.0103
11.5222,0.0
11.525,-0.0044
11.5278,-0.0017
11.5306,0.0023
11.5333,-0.0106
11.5361,-0.0039
11.5389,0.0119
11.5417,0.0092
11.5444,-0.0041
11.5472,0.0069
11.55,-0.0079
11.5528,0.0168
11.5556,0.02
11.5583,0.0369
11.5611,0.0284
11.5639,0.0353
11.5667,0.05
11.5694,0.0441
11.5722,0.0545
11.575,0.0637
11.5778,0.0617
11.5806,0.0596
11.5833,0.0839
11.5861,0.0836
11.5889,0.0881
11.5917,0.0636
11.5944,0.0879
11.5972,0.0833
11.6,0.1009
11.6028,0.088
11.6056,0.1079
11.6083,0.1209
11.6111,0.1024
11.6139,0.1195
11.6167,0.1265
11.6194,0.1364
11.6222,0.1203
11.625,0.1223
11.6278,0.1308
11.6306,0.146
11.6333,0.119
11.6361,0.1376
11.6389,0.1432
11.6417,0.1584
11.6444,0.1571
11.6472,0.1414
11.65,0.1289
11.6528,0.1586
11.6556,0.1431
11.6583,0.1366
11.6611,0.1522
11.6639,0.1517
11.6667,0.1384
11.6694,0.1505
11.6722,0.1538
11.675,0.1526
11.6778,0.1596
11.6806,0.1373
11.6833,0.1418
11.6861,0.1331
11.6889,0.1146
11.6917,0.134
11.6944,0.1399
11.6972,0.1355
11.7,0.1336
11.7028,0.12
11.7056,0.1208
11.7083,0.1162
11.7111,0.1143
11.7139,0.1225
11.7167,0.1198
11.7194,0.1127
11.7222,0.1092
11.725,0.0888
11.7278,0.0992
11.7306,0.0766
11.7333,0.0893
11.7361,0.0729
11.7389,0.0613
11.7417,0.0515
11.7444,0.0624
11.7472,0.0399
11.75,0.0649
11.7528,0.0583
11.7556,0.0214
11.7583,0.0331
11.7611,0.0228
11.7639,0.0156
11.7667,0.0152
11.7694,0.0097
11.7722,0.0121
11.775,0.0004
11.7778,0.0009
11.7806,0.0051
11.7833,-0.0109
11.7861,-0.0018
11.7889,0.0003
11.7917,0.0125
11.7944,-0.0063
11.7972,0.0004
11.8,-0.0167
11.8028,0.0004
11.8056,-0.0106
11.8083,0.0043
11.8111,0.0047
11.8139,0.0043
11.8167,0.0048
11.8194,0.0098
11.8222,0.0031
11.825,0.0141
11.8278,0.0063
11.8306,-0.0091
11.8333,0.0233
11.8361,0.0021
11.8389,0.0187
11.8417,-0.006
11.8444,0.0125
11.8472,0.0033
11.85,-0.0145
11.8528,-0.0085
11.8556,0.0096
11.8583,0.0055
11.8611,-0.0274
11.8639,-0.0076
11.8667,-0.0063
11.8694,0.0109
11.8722,0.0028
11.875,-0.0048
11.8778,0.0022
11.8806,-0.0006
11.8833,0.0104
11.8861,-0.0005
11.8889,0.0096
11.8917,-0.0055
11.8944,-0.0039
11.8972,-0.0047
11.9,-0.0011
11.9028,0.0
11.9056,0.0086
11.9083,0.0109
11.9111,-0.0145
11.9139,-0.0074
11.9167,-0.0066
11.9194,-0.0058
11.9222,0.0146
11.925,0.0021
11.9278,-0.0002
11.9306,-0.0085
11.9333,-0.0291
11.9361,-0.0123
11.9389,-0.0157
11.9417,0.0052
11.9444,-0.0087
11.9472,-0.0067
11.95,0.0041
11.9528,-0.0042
11.9556,-0.0146
11.9583,0.0071
11.9611,0.0039
11.9639,0.008
11.9667,-0.0113
11.9694,-0.0154
11.9722,0.0038
11.975,-0.0013
11.9778,-0.005
11.9806,-0.0018
11.9833,0.0018
11.9861,-0.0062
11.9889,0.0093
11.9917,0.0015
11.9944,0.0096
11.9972,-0.0036
12.0,0.011
12.0028,-0.002
12.0056,-0.0046
12.0083,-0.0086
12.0111,0.0096
12.0139,0.0017
12.0167,-0.0078
12.0194,0.0003
12.0222,0.0091
12.025,-0.0018
12.0278,0.0012
12.0306,0.0073
12.0333,0.0033
12.0361,-0.0044
12.0389,-0.007
12.0417,-0.0101
12.0444,0.0076
12.0472,0.0061
12.05,-0.0023
12.0528,0.0088
12.0556,0.0168
12.0583,-0.0182
12.0611,0.002
12.0639,0.013
12.0667,-0.0118
12.0694,-0.0069
12.0722,-0.0259
12.075,-0.0202
12.0778,0.0071
12.0806,0.0066
12.0833,0.0047
12.0861,-0.011
12.0889,-0.0024
12.0917,0.0057
12.0944,-0.0082
12.0972,-0.001
12.1,0.0002
12.1028,0.0051
12.1056,0.0137
12.1083,0.0068
12.1111,-0.0104
12.1139,0.0013
12.1167,-0.0096
12.1194,0.0312
12.1222,-0.0021
12.125,0.0063
12.1278,-0.0106
12.1306,0.0032
12.1333,0.0168
12.1361,-0.028
12.1389,0.0053
12.1417,0.007
12.1444,-0.0108
12.1472,-0.0004
12.15,0.0043
12.1528,-0.0034
12.1556,-0.0033
12.1583,0.0101
12.1611,0.0097
12.1639,0.0043
12.1667,-0.0156
12.1694,-0.0008
12.1722,0.0044
12.175,-0.0009
12.1778,-0.0254
12.1806,-0.0046
12.1833,-0.003
12.1861,-0.0179
12.1889,-0.006
12.1917,0.0019
12.1944,0.0203
12.1972,0.0126
12.2,0.0144
12.2028,-0.0021
12.2056,-0.0034
12.2083,-0.0054
12.2111,0.0164
12.2139,0.0004
12.2167,0.0094
12.2194,0.0151
12.2222,0.0157
12.225,0.0141
12.2278,0.04
12.2306,0.0361
12.2333,0.0442
12.2361,0.052
12.2389,0.0205
12.2417,0.0408
12.2444,0.0396
12.2472,0.0506
12.25,0.0479
12.2528,0.059
12.2556,0.0642
12.2583,0.0638
12.2611,0.0775
12.2639,0.0729
12.2667,0.0725
12.2694,0.0673
12.2722,0.0705
12.275,0.074
12.2778,0.0738
12.2806,0.0757
12.2833,0.0844
12.2861,0.0692
12.2889,0.0652
12.2917,0.0609
12.2944,0.0766
12.2972,0.0731
12.3,0.0727
12.3028,0.0766
12.3056,0.0856
12.3083,0.0749
12.3111,0.0876
12.3139,0.0758
12.3167,0.0665
12.3194,0.0526
12.3222,0.0646
12.325,0.0599
12.3278,0.061
12.3306,0.0665
12.3333,0.0562
12.3361,0.0532
12.3389,0.0393
12.3417,0.0519
12.3444,0.0463
12.3472,0.0289
12.35,0.0603
12.3528,0.0341
12.3556,0.0294
12.3583,0.0032
12.3611,0.034
12.3639,0.0046
12.3667,0.0211
12.3694,0.0028
12.3722,0.0055
12.375,0.0034
12.3778,0.006
12.3806,0.01
12.3833,0.0057
12.3861,0.0109
12.3889,0.0026
12.3917,0.0023
12.3944,-0.0097
12.3972,-0.001
12.4,0.001
12.4028,0.0101
12.4056,0.0026
12.4083,0.0055
12.4111,0.0043
12.4139,0.0026
12.4167,0.0097
12.4194,0.0149
12.4222,0.0035
12.425,-0.0071
12.4278,-0.0014
12.4306,0.0174
12.4333,0.0085
12.4361,0.01
12.4389,-0.0013
12.4417,-0.0104
12.4444,-0.0225
12.4472,-0.0061
12.45,-0.0329
12.4528,-0.043
12.4556,-0.0395
12.4583,-0.0161
12.4611,-0.0362
12.4639,-0.0368
12.4667,-0.0045
12.4694,0.0379
12.4722,0.1331
12.475,0.2329
12.4778,0.3193
12.4806,0.4204
12.4833,0.4881
12.4861,0.5794
12.4889,0.6282
12.4917,0.6988
12.4944,0.7224
12.4972,0.7694
12.5,0.791
12.5028,0.7976
12.5056,0.7904
12.5083,0.7605
12.5111,0.7609
12.5139,0.7189
12.5167,0.6797
12.5194,0.6291
12.5222,0.5388
12.525,0.447
12.5278,0.3703
12.5306,0.289
12.5333,0.1894
12.5361,0.0771
12.5389,0.0157
12.5417,-0.029
12.5444,-0.0442
12.5472,-0.0455
12.55,-0.0789
12.5528,-0.0846
12.5556,-0.1124
12.5583,-0.1219
12.5611,-0.1115
12.5639,-0.1071
12.5667,-0.1118
12.5694,-0.1029
12.5722,-0.0858
12.575,-0.0898
12.5778,-0.0662
12.5806,-0.0284
12.5833,-0.0264
12.5861,0.0057
12.5889,0.0222
12.5917,-0.0043
12.5944,0.0165
12.5972,-0.0119
12.6,0.0096
12.6028,0.0083
12.6056,-0.0067
12.6083,-0.0148
12.6111,0.0027
12.6139,0.0112
12.6167,0.0109
12.6194,0.0154
12.6222,0.001
12.625,0.0016
12.6278,0.0058
12.6306,-0.0225
12.6333,0.0096
12.6361,0.0126
12.6389,-0.015
12.6417,0.0092
12.6444,0.0184
12.6472,-0.0226
12.65,0.005
12.6528,-0.02
12.6556,-0.0142
12.6583,-0.0146
12.6611,-0.0198
12.6639,-0.0078
12.6667,0.0006
12.6694,-0.0123
12.6722,0.0079
12.675,0.0061
12.6778,-0.0075
12.6806,-0.0117
12.6833,0.0024
12.6861,0.0005
12.6889,-0.001
12.6917,0.0034
12.6944,0.0004
12.6972,-0.0071
12.7,-0.0134
12.7028,-0.0158
12.7056,0.0056
12.7083,0.0222
12.7111,0.0119
12.7139,0.0077
12.7167,0.0148
12.7194,0.0108
12.7222,0.0271
12.725,0.025
12.7278,0.0493
12.7306,0.0426
12.7333,0.0631
12.7361,0.1006
12.7389,0.0552
12.7417,0.0663
12.7444,0.0873
12.7472,0.0964
12.75,0.0835
12.7528,0.1007
12.7556,0.1099
12.7583,0.1068
12.7611,0.1047
12.7639,0.1193
12.7667,0.1251
12.7694,0.1102
12.7722,0.1264
12.775,0.1285
12.7778,0.1245
12.7806,0.1347
12.7833,0.1474
12.7861,0.141
12.7889,0.1239
12.7917,0.1374
12.7944,0.1227
12.7972,0.1312
12.8,0.1413
12.8028,0.1261
12.8056,0.1506
12.8083,0.1564
12.8111,0.1519
12.8139,0.1469
12.8167,0.1555
12.8194,0.1437
12.8222,0.1584
12.825,0.1651
12.8278,0.1428
12.8306,0.1251
12.8333,0.157
12.8361,0.1525
12.8389,0.1332
12.8417,0.1407
12.8444,0.1206
12.8472,0.1361
12.85,0.1438
12.8528,0.1395
12.8556,0.1301
12.8583,0.131
12.8611,0.1404
12.8639,0.1146
12.8667,0.1241
12.8694,0.1179
12.8722,0.1055
12.875,0.1052
12.8778,0.106
12.8806,0.0972
12.8833,0.0948
12.8861,0.0959
12.8889,0.0798
12.8917,0.0784
12.8944,0.0773
12.8972,0.0698
12.9,0.0733
12.9028,0.0664
12.9056,0.0524
12.9083,0.0404
12.9111,0.0615
12.9139,0.0313
12.9167,0.0363
12.9194,0.0547
12.9222,0.0284
12.925,0.0252
12.9278,0.0383
12.9306,-0.0155
12.9333,0.0054
12.9361,0.0099
12.9389,0.0097
12.9417,0.003
12.9444,-0.007
12.9472,0.0015
12.95,0.0008
12.9528,-0.0088
12.9556,-0.0176
12.9583,0.0037
12.9611,0.0046
12.9639,-0.0116
12.9667,-0.0016
12.9694,0.0073
12.9722,0.0012
12.975,-0.0037
12.9778,-0.0023
12.9806,0.0128
12.9833,-0.0023
12.9861,0.0098
12.9889,-0.0106
12.9917,-0.0035
12.9944,0.0066
12.9972,0.005
13.0,-0.0216
13.0028,-0.0122
13.0056,0.0034
13.0083,-0.0123
13.0111,-0.0033
13.0139,0.0017
13.0167,0.0083
13.0194,0.014
13.0222,0.0037
13.025,0.0022
13.0278,0.0005
13.0306,0.0036
13.0333,0.0069
13.0361,-0.0128
13.0389,-0.0039
13.0417,-0.0057
13.0444,-0.0101
13.0472,-0.0004
13.05,0.0078
13.0528,0.0033
13.0556,-0.0131
13.0583,-0.0037
13.0611,-0.0014
13.0639,-0.0081
13.0667,-0.0131
13.0694,-0.0004
13.0722,-0.0004
13.075,0.0033
13.0778,-0.0107
13.0806,-0.0041
13.0833,0.0063
13.0861,-0.0073
13.0889,-0.0241
13.0917,0.0071
13.0944,-0.0152
13.0972,0.0026
13.1,0.0093
13.1028,-0.0001
13.1056,0.001
13.1083,-0.0082
13.1111,0.0212
13.1139,0.0178
13.1167,0.0051
13.1194,-0.0076
13.1222,-0.0247
13.125,0.0014
13.1278,0.0269
13.1306,0.0052
13.1333,-0.0035
13.1361,-0.0065
13.1389,0.0062
13.1417,-0.0075
13.1444,0.0074
13.1472,0.0102
13.15,0.0069
13.1528,0.013
13.1556,0.011
13.1583,-0.0036
13.1611,0.0056
13.1639,0.0036
13.1667,-0.0113
13.1694,0.005
13.1722,-0.0128
13.175,-0.0118
13.1778,0.0052
13.1806,-0.0014
13.1833,0.0047
13.1861,-0.0029
13.1889,-0.0124
13.1917,0.0027
13.1944,-0.0078
13.1972,0.002
13.2,0.0019
13.2028,-0.0194
13.2056,-0.0019
13.2083,-0.0015
13.2111,0.0081
13.2139,-0.0035
13.2167,0.011
13.2194,-0.0015
13.2222,-0.0071
13.225,-0.0062
13.2278,-0.0126
13.2306,-0.0171
13.2333,-0.0076
13.2361,-0.0054
13.2389,0.0067
13.2417,0.0201
13.2444,-0.0059
13.2472,0.0013
13.25,0.0082
13.2528,0.0051
13.2556,0.0011
13.2583,0.0103
13.2611,0.0171
13.2639,0.0113
13.2667,-0.0217
13.2694,-0.0115
13.2722,0.0011
13.275,0.0023
13.2778,-0.0238
13.2806,0.0027
13.2833,0.0095
13.2861,0.0027
13.2889,0.0049
13.2917,0.0045
13.2944,-0.0035
13.2972,0.0193
13.3,0.0035
13.3028,0.0057
13.3056,-0.0027
13.3083,0.0081
13.3111,0.0033
13.3139,-0.0081
13.3167,0.0032
13.3194,-0.0156
13.3222,0.0115
13.325,0.0021
13.3278,0.0081
13.3306,-0.0017
13.3333,0.0147
13.3361,0.0096
13.3389,0.007
13.3417,-0.005
13.3444,0.0015
13.3472,0.0049
13.35,0.0064
13.3528,0.0017
13.3556,0.0011
13.3583,0.015
13.3611,-0.0069
13.3639,-0.0048
13.3667,-0.0033
13.3694,0.0114
13.3722,0.0017
13.375,0.0154
13.3778,-0.0131
13.3806,-0.0027
13.3833,0.0043
13.3861,-0.0017
13.3889,0.0354
13.3917,0.0113
13.3944,0.0197
13.3972,0.0308
13.4,0.0286
13.4028,0.0442
13.4056,0.0529
13.4083,0.0381
13.4111,0.059
13.4139,0.0333
13.4167,0.0551
13.4194,0.061
13.4222,0.0619
13.425,0.0572
13.4278,0.0731
13.4306,0.0678
13.4333,0.0702
13.4361,0.0664
13.4389,0.0744
13.4417,0.0757
13.4444,0.0674
13.4472,0.0699
13.45,0.0773
13.4528,0.063
13.4556,0.0776
13.4583,0.0864
13.4611,0.0894
13.4639,0.0669
13.4667,0.0917
13.4694,0.0866
13.4722,0.0712
13.475,0.0865
13.4778,0.0695
13.4806,0.0917
13.4833,0.0712
13.4861,0.0594
13.4889,0.0574
13.4917,0.0801
13.4944,0.0605
13.4972,0.0462
13.5,0.0666
13.5028,0.0539
13.5056,0.0499
13.5083,0.0495
13.5111,0.0664
13.5139,0.0417
13.5167,0.0529
13.5194,0.0483
13.5222,0.0347
13.525,0.0339
13.5278,0.0159
13.5306,0.049
13.5333,0.0239
13.5361,0.0281
13.5389,0.0148
13.5417,0.0169
13.5444,0.01
13.5472,0.012
13.55,0.0021
13.5528,0.0198
13.5556,0.0058
13.5583,-0.0149
13.5611,0.0044
13.5639,0.0046
13.5667,0.0139
13.5694,0.0056
13.5722,0.0045
13.575,0.0034
13.5778,-0.005
13.5806,0.0036
13.5833,0.009
13.5861,0.0021
13.5889,0.001
13.5917,0.0027
13.5944,0.007
13.5972,0.0019
13.6,-0.0029
13.6028,-0.0199
13.6056,-0.0127
13.6083,0.0021
13.6111,0.0097
13.6139,0.0006
13.6167,0.0137
13.6194,0.002
13.6222,0.007
13.625,-0.0071
13.6278,-0.0286
13.6306,-0.0296
13.6333,-0.0255
13.6361,-0.0408
13.6389,-0.0103
13.6417,-0.0193
13.6444,0.0185
13.6472,0.0801
13.65,0.1886
13.6528,0.2724
13.6556,0.3762
13.6583,0.4468
13.6611,0.5108
13.6639,0.5884
13.6667,0.66
13.6694,0.717
13.6722,0.7358
13.675,0.7651
13.6778,0.8026
13.6806,0.8125
13.6833,0.8048
13.6861,0.8011
13.6889,0.7377
13.6917,0.7135
13.6944,0.6505
13.6972,0.5844
13.7,0.5243
13.7028,0.4533
13.7056,0.3757
13.7083,0.2781
13.7111,0.2046
13.7139,0.0978
13.7167,0.0052
13.7194,-0.0357
13.7222,-0.0325
13.725,-0.0625
13.7278,-0.0761
13.7306,-0.1003
13.7333,-0.1083
13.7361,-0.1101
13.7389,-0.1121
13.7417,-0.1221
13.7444,-0.1143
13.7472,-0.1316
13.75,-0.1082
13.7528,-0.0863
13.7556,-0.063
13.7583,-0.039
13.7611,-0.0246
13.7639,0.0162
13.7667,0.0017
13.7694,0.0052
13.7722,0.006
13.775,0.0038
13.7778,0.0037
13.7806,0.0019
13.7833,0.0054
13.7861,0.016
13.7889,0.002
13.7917,0.0112
13.7944,0.0246
13.7972,0.0065
13.8,-0.0068
13.8028,-0.0227
13.8056,0.0142
13.8083,-0.0028
13.8111,0.0008
13.8139,-0.0001
13.8167,0.0048
13.8194,-0.0029
13.8222,0.0076
13.825,-0.0173
13.8278,-0.0088
13.8306,0.0074
13.8333,-0.0016
13.8361,-0.0201
13.8389,0.0125
13.8417,0.0169
13.8444,0.0151
13.8472,0.0123
13.85,-0.008
13.8528,0.0059
13.8556,-0.0029
13.8583,-0.0001
13.8611,0.0115
13.8639,-0.0191
13.8667,-0.0078
13.8694,0.0024
13.8722,-0.0062
13.875,0.0077
13.8778,0.0041
13.8806,0.0051
13.8833,0.0118
13.8861,0.0011
13.8889,0.0065
13.8917,0.018
13.8944,0.0214
13.8972,0.0267
13.9,0.0343
13.9028,0.0467
13.9056,0.0529
13.9083,0.0692
13.9111,0.0619
13.9139,0.0587
13.9167,0.0608
13.9194,0.0784
13.9222,0.0862
13.925,0.0797
13.9278,0.0726
13.9306,0.0888
13.9333,0.0701
13.9361,0.103
13.9389,0.1075
13.9417,0.0988
13.9444,0.1066
13.9472,0.1172
13.95,0.1131
13.9528,0.1141
13.9556,0.1296
13.9583,0.1368
13.9611,0.1401
13.9639,0.1148
13.9667,0.1249
13.9694,0.145
13.9722,0.1272
13.975,0.1451
13.9778,0.142
13.9806,0.141
13.9833,0.1506
13.9861,0.1459
13.9889,0.1372
13.9917,0.1504
13.9944,0.1431
13.9972,0.1257
14.0,0.1591
14.0028,0.1444
14.0056,0.1447
14.0083,0.1659
14.0111,0.1414
14.0139,0.1563
14.0167,0.158
14.0194,0.1395
14.0222,0.1322
14.025,0.1575
14.0278,0.1296
14.0306,0.142
14.0333,0.117
14.0361,0.1287
14.0389,0.1446
14.0417,0.1229
14.0444,0.1234
14.0472,0.1196
14.05,0.1066
14.0528,0.1158
14.0556,0.1003
14.0583,0.1148
14.0611,0.1074
14.0639,0.0891
14.0667,0.0937
14.0694,0.0947
14.0722,0.1048
14.075,0.0868
14.0778,0.101
14.0806,0.0833
14.0833,0.0748
14.0861,0.0501
14.0889,0.0618
14.0917,0.0622
14.0944,0.0625
14.0972,0.0492
14.1,0.042
14.1028,0.0342
14.1056,0.0221
14.1083,0.041
14.1111,0.0082
14.1139,0.0274
14.1167,0.0089
14.1194,0.0044
14.1222,-0.0068
14.125,-0.0058
14.1278,-0.0067
14.1306,0.0035
14.1333,-0.0152
14.1361,0.0049
14.1389,-0.0015
14.1417,-0.0079
14.1444,0.0056
14.1472,0.0019
14.15,0.01
14.1528,0.0089
14.1556,-0.0097
14.1583,-0.0183
14.1611,0.0049
14.1639,0.0006
14.1667,-0.0199
14.1694,-0.0037
14.1722,-0.0077
14.175,0.0108
14.1778,0.0173
14.1806,0.0137
14.1833,0.0035
14.1861,0.0139
14.1889,0.0077
14.1917,-0.0053
14.1944,0.0102
14.1972,0.011
14.2,-0.0029
14.2028,-0.0112
14.2056,-0.0157
14.2083,-0.0071
14.2111,-0.0037
14.2139,0.0237
14.2167,-0.0015
14.2194,-0.0041
14.2222,0.0093
14.225,0.0038
14.2278,0.0078
14.2306,-0.0133
14.2333,0.0201
14.2361,0.0097
14.2389,-0.0041
14.2417,0.0136
14.2444,0.0042
14.2472,-0.0019
14.25,0.0139
14.2528,-0.0012
14.2556,0.0151
14.2583,-0.0054
14.2611,-0.0005
14.2639,0.021
14.2667,-0.0124
14.2694,-0.0142
14.2722,0.0091
14.275,-0.0099
14.2778,0.0136
14.2806,0.0037
14.2833,0.015
14.2861,0.0117
14.2889,0.0088
14.2917,0.0055
14.2944,0.012
14.2972,0.0248
14.3,-0.0114
14.3028,-0.0079
14.3056,-0.0098
14.3083,0.0013
14.3111,0.0002
14.3139,-0.0099
14.3167,0.0036
14.3194,0.0098
14.3222,-0.0049
14.325,0.0143
14.3278,-0.0055
14.3306,0.0055
14.3333,-0.0131
14.3361,0.0173
14.3389,0.0084
14.3417,0.0052
14.3444,0.0013
14.3472,-0.0095
14.35,0.0129
14.3528,0.0011
14.3556,0.0173
14.3583,0.0095
14.3611,-0.0016
14.3639,-0.0016
14.3667,0.0079
14.3694,-0.0144
14.3722,0.0055
14.375,-0.0107
14.3778,0.006
14.3806,-0.0073
14.3833,0.0127
14.3861,-0.0026
14.3889,-0.0152
14.3917,-0.0244
14.3944,0.0096
14.3972,-0.0115
14.4,0.0011
14.4028,0.0048
14.4056,-0.0129
14.4083,-0.0087
14.4111,0.0043
14.4139,-0.006
14.4167,0.0195
14.4194,-0.0122
14.4222,-0.0073
14.425,0.0012
14.4278,-0.0044
14.4306,0.004
14.4333,-0.0142
14.4361,-0.0065
14.4389,0.0022
14.4417,-0.0208
14.4444,0.0162
14.4472,0.0073
14.45,0.0065
14.4528,-0.0058
14.4556,-0.0087
14.4583,0.0066
14.4611,-0.0144
14.4639,0.003
14.4667,0.0068
14.4694,-0.0003
14.4722,-0.0234
14.475,0.0021
14.4778,0.0047
14.4806,-0.0133
14.4833,0.014
14.4861,-0.0019
14.4889,-0.0043
14.4917,0.0146
14.4944,0.0075
14.4972,0.0084
14.5,0.0123
14.5028,-0.019
14.5056,0.009
14.5083,-0.0036
14.5111,0.0088
14.5139,-0.0001
14.5167,-0.0146
14.5194,0.0074
14.5222,-0.0001
14.525,-0.0035
14.5278,-0.0095
14.5306,0.0157
14.5333,0.0167
14.5361,0.0039
14.5389,-0.0006
14.5417,0.0079
14.5444,-0.0091
14.5472,-0.002
14.55,0.0042
14.5528,0.0059
14.5556,-0.0243
14.5583,-0.0189
14.5611,-0.0067
14.5639,0.0069
14.5667,-0.0072
14.5694,0.0003
14.5722,-0.0086
14.575,0.0182
14.5778,0.0064
14.5806,0.0086
14.5833,0.0173
14.5861,0.0298
14.5889,0.0159
14.5917,0.0414
14.5944,0.0409
14.5972,0.0434
14.6,0.0539
14.6028,0.0433
14.6056,0.043
14.6083,0.0563
14.6111,0.0434
14.6139,0.0679
14.6167,0.0664
14.6194,0.086
14.6222,0.0836
14.625,0.0756
14.6278,0.0702
14.6306,0.055
14.6333,0.0896
14.6361,0.0852
14.6389,0.0823
14.6417,0.0735
14.6444,0.0932
14.6472,0.0525
14.65,0.0768
14.6528,0.0757
14.6556,0.0848
14.6583,0.0713
14.6611,0.0771
14.6639,0.0727
14.6667,0.0599
14.6694,0.0656
14.6722,0.0552
14.675,0.0636
14.6778,0.0648
14.6806,0.0411
14.6833,0.0527
14.6861,0.0548
14.6889,0.0458
14.6917,0.0293
14.6944,0.0257
14.6972,0.0369
14.7,0.0453
14.7028,0.0255
14.7056,0.0373
14.7083,0.0196
14.7111,0.0232
14.7139,0.0185
14.7167,-0.0026
14.7194,-0.0077
14.7222,0.0179
14.725,-0.0053
14.7278,-0.0028
14.7306,-0.0063
14.7333,0.0108
14.7361,0.0086
14.7389,0.0032
14.7417,0.0054
14.7444,-0.0171
14.7472,0.0139
14.75,0.0058
14.7528,-0.015
14.7556,0.0006
14.7583,0.0171
14.7611,-0.02
14.7639,-0.0154
14.7667,-0.0043
14.7694,0.0071
14.7722,-0.0023
14.775,0.0043
14.7778,0.0037
14.7806,-0.0174
14.7833,0.0062
14.7861,-0.008
14.7889,-0.0294
14.7917,-0.0344
14.7944,-0.052
14.7972,-0.043
14.8,-0.0227
14.8028,-0.0145
14.8056,-0.0118
14.8083,0.0829
14.8111,0.1882
14.8139,0.2941
14.8167,0.4024
14.8194,0.4578
14.8222,0.5773
14.825,0.65
14.8278,0.6834
14.8306,0.7283
14.8333,0.7785
14.8361,0.809
14.8389,0.8039
14.8417,0.7839
14.8444,0.7675
14.8472,0.7353
14.85,0.6716
14.8528,0.6389
14.8556,0.5622
14.8583,0.459
14.8611,0.3742
14.8639,0.2636
14.8667,0.1656
14.8694,0.0532
14.8722,0.0105
14.875,-0.0436
14.8778,-0.0522
14.8806,-0.0501
14.8833,-0.1093
14.8861,-0.106
14.8889,-0.1182
14.8917,-0.1131
14.8944,-0.1133
14.8972,-0.1008
14.9,-0.0952
14.9028,-0.0935
14.9056,-0.0542
14.9083,-0.0515
14.9111,-0.0152
14.9139,0.0013
14.9167,0.0007
14.9194,0.007
14.9222,-0.0014
14.925,-0.0083
14.9278,0.0107
14.9306,-0.0155
14.9333,-0.0138
14.9361,0.0013
14.9389,-0.0042
14.9417,-0.0041
14.9444,-0.0077
14.9472,0.0195
14.95,-0.0115
14.9528,0.004
14.9556,0.0059
14.9583,-0.0056
14.9611,0.0204
14.9639,-0.0099
14.9667,0.0157
14.9694,-0.0023
14.9722,0.0009
14.975,-0.0075
14.9778,0.0
14.9806,0.0156
14.9833,-0.0067
14.9861,0.0036
14.9889,0.0083
14.9917,0.0084
14.9944,0.0105
14.9972,0.0017
15.0,0.0003
15.0028,-0.0054
15.0056,-0.0084
15.0083,-0.0009
15.0111,-0.0124
15.0139,0.0043
15.0167,-0.0079
15.0194,-0.0031
15.0222,-0.0
15.025,0.0137
15.0278,0.0192
15.0306,0.0279
15.0333,0.0137
15.0361,0.0219
15.0389,0.0546
15.0417,0.0356
15.0444,0.0521
15.0472,0.0535
15.05,0.0627
15.0528,0.0617
15.0556,0.0566
15.0583,0.0744
15.0611,0.0668
15.0639,0.1014
15.0667,0.0814
15.0694,0.0915
15.0722,0.0928
15.075,0.1103
15.0778,0.1269
15.0806,0.109
15.0833,0.1082
15.0861,0.1021
15.0889,0.1466
15.0917,0.1329
15.0944,0.1221
15.0972,0.1291
15.1,0.1607
15.1028,0.1142
15.1056,0.1467
15.1083,0.1538
15.1111,0.1658
15.1139,0.1499
15.1167,0.1377
15.1194,0.1412
15.1222,0.1471
15.125,0.1428
15.1278,0.1655
15.1306,0.1569
15.1333,0.1501
15.1361,0.1432
15.1389,0.1355
15.1417,0.1379
15.1444,0.1398
15.1472,0.1331
15.15,0.1608
15.1528,0.126
15.1556,0.1532
15.1583,0.1383
15.1611,0.1292
15.1639,0.1468
15.1667,0.1203
15.1694,0.1265
15.1722,0.124
15.175,0.1009
15.1778,0.1287
15.1806,0.096
15.1833,0.1071
15.1861,0.102
15.1889,0.1035
15.1917,0.0928
15.1944,0.1071
15.1972,0.0931
15.2,0.075
15.2028,0.0566
15.2056,0.0724
15.2083,0.0734
15.2111,0.0443
15.2139,0.0434
15.2167,0.0526
15.2194,0.0475
15.2222,0.0279
15.225,0.0374
15.2278,0.0175
15.2306,0.0062
15.2333,0.0218
15.2361,0.0146
15.2389,-0.0183
15.2417,-0.0039
15.2444,0.0002
15.2472,-0.0192
15.25,-0.0102
15.2528,-0.0039
15.2556,0.0076
15.2583,-0.0102
15.2611,0.0073
15.2639,0.0137
15.2667,-0.0076
15.2694,0.0053
15.2722,0.0074
15.275,0.0198
15.2778,-0.0106
15.2806,0.0099
15.2833,0.0085
15.2861,-0.0107
15.2889,-0.0005
15.2917,-0.0204
15.2944,-0.0083
15.2972,-0.0021
15.3,-0.0158
15.3028,0.0091
15.3056,-0.0032
15.3083,0.0033
15.3111,-0.0027
15.3139,0.0268
15.3167,0.004
15.3194,0.0055
15.3222,0.0011
15.325,-0.0159
15.3278,-0.0026
15.3306,0.0064
15.3333,0.0046
15.3361,0.0109
15.3389,0.0019
15.3417,0.0044
15.3444,-0.0032
15.3472,-0.0099
15.35,-0.0071
15.3528,-0.0041
15.3556,-0.007
15.3583,-0.0033
15.3611,-0.0132
15.3639,0.0104
15.3667,-0.0049
15.3694,0.0042
15.3722,-0.0148
15.375,-0.0095
15.3778,0.0034
15.3806,0.018
15.3833,0.0008
15.3861,0.0045
15.3889,-0.0111
15.3917,-0.0103
15.3944,-0.0175
15.3972,-0.0126
15.4,0.0166
15.4028,-0.0019
15.4056,0.0052
15.4083,-0.0037
15.4111,-0.0031
15.4139,0.0087
15.4167,0.0144
15.4194,-0.009
15.4222,-0.0017
15.425,0.0117
15.4278,-0.0039
15.4306,0.0034
15.4333,0.0094
15.4361,-0.0015
15.4389,0.0074
15.4417,0.01
15.4444,0.0104
15.4472,-0.0158
15.45,0.0048
15.4528,-0.0035
15.4556,0.0165
15.4583,-0.0027
15.4611,0.0093
15.4639,-0.0048
15.4667,-0.0031
15.4694,-0.0069
15.4722,0.0015
15.475,0.0039
15.4778,-0.0079
15.4806,-0.0083
15.4833,-0.0171
15.4861,0.0077
15.4889,-0.003
15.4917,0.0169
15.4944,0.0232
15.4972,0.0111
15.5,-0.0112
15.5028,0.0005
15.5056,0.0154
15.5083,-0.0082
15.5111,-0.0022
15.5139,0.0049
15.5167,0.0141
15.5194,-0.016
15.5222,-0.0179
15.525,-0.0064
15.5278,-0.0031
15.5306,0.0048
15.5333,0.0047
15.5361,-0.0057
15.5389,0.0048
15.5417,-0.0083
15.5444,-0.0107
15.5472,-0.0106
15.55,-0.0013
15.5528,0.0076
15.5556,-0.0073
15.5583,0.0138
15.5611,0.0046
15.5639,-0.0097
15.5667,0.0113
15.5694,0.0054
15.5722,0.0118
15.575,0.0036
15.5778,-0.0244
15.5806,0.0071
15.5833,-0.017
15.5861,-0.0148
15.5889,0.002
15.5917,-0.0002
15.5944,0.0005
15.5972,0.0086
15.6,-0.0027
15.6028,0.0034
15.6056,0.0175
15.6083,0.0105
15.6111,0.0128
15.6139,0.0086
15.6167,-0.0026
15.6194,-0.0123
15.6222,-0.0237
15.625,-0.001
15.6278,-0.0074
15.6306,-0.0014
15.6333,0.0111
15.6361,0.0165
15.6389,-0.0096
15.6417,0.0087
15.6444,-0.003
15.6472,0.0071
15.65,0.0118
15.6528,0.0234
15.6556,0.0391
15.6583,0.0273
15.6611,0.0201
15.6639,0.0382
15.6667,0.0428
15.6694,0.0402
15.6722,0.0605
15.675,0.0545
15.6778,0.0802
15.6806,0.0617
15.6833,0.0652
15.6861,0.0552
15.6889,0.1009
15.6917,0.0489
15.6944,0.0595
15.6972,0.0834
15.7,0.0797
15.7028,0.0762
15.7056,0.0677
15.7083,0.0702
15.7111,0.0729
15.7139,0.0739
15.7167,0.0851
15.7194,0.0836
15.7222,0.084
15.725,0.0756
15.7278,0.0814
15.7306,0.0741
15.7333,0.0775
15.7361,0.0788
15.7389,0.079
15.7417,0.0478
15.7444,0.0662
15.7472,0.0713
15.75,0.0655
15.7528,0.0496
15.7556,0.0598
15.7583,0.0641
15.7611,0.0526
15.7639,0.0406
15.7667,0.0364
15.7694,0.021
15.7722,0.0269
15.775,0.0249
15.7778,0.0106
15.7806,0.0042
15.7833,-0.0009
15.7861,0.0048
15.7889,-0.0061
15.7917,-0.0124
15.7944,0.0045
15.7972,0.0041
15.8,0.0138
15.8028,-0.0072
15.8056,-0.0045
15.8083,0.0177
15.8111,0.0032
15.8139,-0.0014
15.8167,-0.0118
15.8194,-0.0038
15.8222,0.013
15.825,0.0028
15.8278,0.0003
15.8306,0.0074
15.8333,-0.0045
15.8361,0.0039
15.8389,-0.0125
15.8417,0.0064
15.8444,-0.0076
15.8472,0.0133
15.85,-0.0295
15.8528,-0.0304
15.8556,-0.056
15.8583,-0.0396
15.8611,-0.0381
15.8639,-0.037
15.8667,-0.012
15.8694,0.0197
15.8722,0.1353
15.875,0.2554
15.8778,0.3566
15.8806,0.4558
15.8833,0.5549
15.8861,0.6391
15.8889,0.6775
15.8917,0.7389
15.8944,0.7683
15.8972,0.7972
15.9,0.79
15.9028,0.7774
15.9056,0.7493
15.9083,0.7303
15.9111,0.6373
15.9139,0.5823
15.9167,0.5118
15.9194,0.4024
15.9222,0.2972
15.925,0.1962
15.9278,0.08
15.9306,-0.0078
15.9333,-0.0249
15.9361,-0.058
15.9389,-0.0704
15.9417,-0.0973
15.9444,-0.0938
15.9472,-0.1072
15.95,-0.1268
15.9528,-0.1397
15.9556,-0.1146
15.9583,-0.0932
15.9611,-0.102
15.9639,-0.0717
15.9667,-0.052
15.9694,-0.0225
15.9722,-0.0183
15.975,-0.0122
15.9778,0.0158
15.9806,-0.0057
15.9833,0.0052
15.9861,-0.0093
15.9889,0.0003
15.9917,0.0041
15.9944,0.008
15.9972,0.0003
16.0,0.0086
16.0028,0.0182
16.0056,-0.0081
16.0083,-0.0059
16.0111,0.0105
16.0139,0.0015
16.0167,0.0198
16.0194,0.0059
16.0222,0.0048
16.025,0.0088
16.0278,-0.0053
16.0306,-0.0072
16.0333,0.0168
16.0361,-0.0165
16.0389,0.0049
16.0417,0.0233
16.0444,-0.0102
16.0472,0.0165
16.05,-0.0162
16.0528,0.0047
16.0556,-0.0115
16.0583,-0.0057
16.0611,-0.0043
16.0639,0.0138
16.0667,0.0078
16.0694,0.0177
16.0722,-0.0172
16.075,0.017
16.0778,0.0149
16.0806,0.0233
16.0833,0.0327
16.0861,0.041
16.0889,0.0377
16.0917,0.0263
16.0944,0.051
16.0972,0.0577
16.1,0.0604
16.1028,0.0678
16.1056,0.063
16.1083,0.0812
16.1111,0.0919
16.1139,0.0917
16.1167,0.0916
16.1194,0.0931
16.1222,0.1075
16.125,0.1043
16.1278,0.1135
16.1306,0.112
16.1333,0.1194
16.1361,0.1203
16.1389,0.1356
16.1417,0.1337
16.1444,0.1272
16.1472,0.1342
16.15,0.1353
16.1528,0.137
16.1556,0.145
16.1583,0.1499
16.1611,0.1477
16.1639,0.161
16.1667,0.1477
16.1694,0.1553
16.1722,0.1523
16.175,0.1576
16.1778,0.1603
16.1806,0.1577
16.1833,0.1532
16.1861,0.1558
16.1889,0.1499
16.1917,0.1595
16.1944,0.1376
16.1972,0.1332
16.2,0.144
16.2028,0.1268
16.2056,0.1286
16.2083,0.115
16.2111,0.116
16.2139,0.122
16.2167,0.113
16.2194,0.134
16.2222,0.1187
16.225,0.1276
16.2278,0.1084
16.2306,0.0905
16.2333,0.094
16.2361,0.0853
16.2389,0.1025
16.2417,0.0805
16.2444,0.0815
16.2472,0.0513
16.25,0.0678
16.2528,0.0576
16.2556,0.0606
16.2583,0.0451
16.2611,0.0376
16.2639,0.0245
16.2667,0.0255
16.2694,0.0166
16.2722,0.0077
16.275,-0.0118
16.2778,0.0024
16.2806,-0.017
16.2833,0.0029
16.2861,-0.0128
16.2889,-0.0029
16.2917,-0.004
16.2944,0.0054
16.2972,0.0059
16.3,-0.0092
16.3028,0.0192
16.3056,0.014
16.3083,0.0319
16.3111,-0.0109
16.3139,-0.0081
16.3167,0.0012
16.3194,0.0114
16.3222,-0.0029
16.325,0.0123
16.3278,0.0196
16.3306,0.0073
16.3333,0.0019
16.3361,-0.0044
16.3389,0.011
16.3417,-0.0056
16.3444,-0.018
16.3472,0.0178
16.35,0.007
16.3528,-0.0066
16.3556,0.0098
16.3583,0.0045
16.3611,0.0143
16.3639,0.0008
16.3667,-0.0019
16.3694,-0.002
16.3722,-0.0028
16.375,0.0103
16.3778,-0.0037
16.3806,0.0119
16.3833,0.01
16.3861,-0.0144
16.3889,0.0015
16.3917,0.0114
16.3944,0.0072
16.3972,-0.003
16.4,0.007
16.4028,0.011
16.4056,-0.0238
16.4083,-0.0055
16.4111,-0.0011
16.4139,-0.0032
16.4167,0.0023
16.4194,0.0059
16.4222,-0.0082
16.425,-0.0048
16.4278,-0.0071
16.4306,-0.0004
16.4333,0.0032
16.4361,0.0125
16.4389,-0.0111
16.4417,0.0062
16.4444,-0.0026
16.4472,0.0123
16.45,0.0028
16.4528,0.0063
16.4556,0.0175
16.4583,0.0061
16.4611,0.0102
16.4639,-0.0058
16.4667,-0.0129
16.4694,0.0002
16.4722,-0.0015
16.475,0.0083
16.4778,-0.0046
16.4806,0.0051
16.4833,0.0056
16.4861,-0.0062
16.4889,0.0019
16.4917,-0.0103
16.4944,0.0172
16.4972,-0.0015
16.5,0.0024
16.5028,-0.0065
16.5056,-0.0084
16.5083,0.0055
16.5111,0.0041
16.5139,-0.0025
16.5167,0.0033
16.5194,-0.0076
16.5222,0.0068
16.525,-0.0058
16.5278,-0.0122
16.5306,0.0163
16.5333,0.0129
16.5361,-0.0084
16.5389,-0.0132
16.5417,0.014
16.5444,-0.019
16.5472,0.0045
16.55,0.0041
16.5528,-0.0108
16.5556,0.0041
16.5583,0.0085
16.5611,0.0005
16.5639,0.0151
16.5667,0.0095
16.5694,0.002
16.5722,0.0071
16.575,0.0175
16.5778,-0.0018
16.5806,0.0263
16.5833,0.0056
16.5861,0.0231
16.5889,-0.0022
16.5917,-0.0196
16.5944,0.0049
16.5972,-0.0076
16.6,-0.0058
16.6028,0.0037
16.6056,0.0144
16.6083,0.0009
16.6111,0.0074
16.6139,0.0049
16.6167,0.0012
16.6194,0.009
16.6222,0.0007
16.625,-0.0032
16.6278,-0.0026
16.6306,-0.013
16.6333,-0.016
16.6361,-0.0062
16.6389,0.0107
16.6417,0.0289
16.6444,-0.0031
16.6472,0.0043
16.65,0.0042
16.6528,0.0121
16.6556,-0.0011
16.6583,0.0074
16.6611,0.0075
16.6639,-0.0133
16.6667,0.0265
16.6694,0.0245
16.6722,-0.0054
16.675,0.0105
16.6778,0.017
16.6806,0.0312
16.6833,0.0292
16.6861,0.0258
16.6889,0.0511
16.6917,0.0382
16.6944,0.0555
16.6972,0.0288
16.7,0.0418
16.7028,0.0707
16.7056,0.0751
16.7083,0.0771
16.7111,0.0706
16.7139,0.0743
16.7167,0.0748
16.7194,0.0744
16.7222,0.0919
16.725,0.0785
16.7278,0.0855
16.7306,0.0977
16.7333,0.0813
16.7361,0.0917
16.7389,0.081
16.7417,0.0851
16.7444,0.0636
16.7472,0.0924
16.75,0.0679
16.7528,0.0596
16.7556,0.0827
16.7583,0.0778
16.7611,0.0783
16.7639,0.0668
16.7667,0.0614
16.7694,0.0622
16.7722,0.0607
16.775,0.0564
16.7778,0.0416
16.7806,0.0378
16.7833,0.0302
16.7861,0.0388
16.7889,0.0527
16.7917,0.0193
16.7944,0.0128
16.7972,0.0287
16.8,0.0018
16.8028,0.0057
16.8056,-0.0058
16.8083,-0.0077
16.8111,-0.0132
16.8139,-0.0043
16.8167,0.0077
16.8194,0.0065
16.8222,0.0128
16.825,-0.0042
16.8278,-0.0101
16.8306,-0.0194
16.8333,0.012
16.8361,-0.0002
16.8389,0.0057
16.8417,0.0047
16.8444,0.0067
16.8472,0.0167
16.85,-0.0023
16.8528,0.0041
16.8556,0.0098
16.8583,-0.0027
16.8611,0.0079
16.8639,0.0061
16.8667,0.0127
16.8694,-0.0165
16.8722,-0.0394
16.875,-0.0392
16.8778,-0.0491
16.8806,-0.0344
16.8833,-0.0063
16.8861,-0.0039
16.8889,0.1054
16.8917,0.2172
16.8944,0.3222
16.8972,0.408
16.9,0.5175
16.9028,0.6033
16.9056,0.6547
16.9083,0.7519
16.9111,0.7756
16.9139,0.7926
16.9167,0.8007
16.9194,0.7946
16.9222,0.7769
16.925,0.7178
16.9278,0.6721
16.9306,0.6025
16.9333,0.5368
16.9361,0.4195
16.9389,0.3245
16.9417,0.2369
16.9444,0.1076
16.9472,-0.0103
16.95,-0.0317
16.9528,-0.0467
16.9556,-0.0674
16.9583,-0.081
16.9611,-0.1069
16.9639,-0.1161
16.9667,-0.1298
16.9694,-0.109
16.9722,-0.1104
16.975,-0.0889
16.9778,-0.0873
16.9806,-0.0586
16.9833,-0.0441
16.9861,-0.0085
16.9889,-0.0058
16.9917,-0.019
16.9944,-0.0128
16.9972,0.0141
17.0,0.0029
17.0028,0.0137
17.0056,0.0096
17.0083,0.0057
17.0111,0.002
17.0139,0.0065
17.0167,0.0063
17.0194,-0.0015
17.0222,-0.0062
17.025,0.0119
17.0278,0.0027
17.0306,-0.0012
17.0333,-0.0104
17.0361,0.0051
17.0389,-0.0052
17.0417,0.0097
17.0444,-0.0068
17.0472,0.0024
17.05,0.016
17.0528,-0.011
17.0556,-0.0051
17.0583,-0.0135
17.0611,0.0241
17.0639,0.0145
17.0667,-0.0032
17.0694,-0.0054
17.0722,0.0088
17.075,0.0077
17.0778,0.0023
17.0806,0.0003
17.0833,-0.0048
17.0861,-0.0124
17.0889,0.0074
17.0917,0.0047
17.0944,0.0306
17.0972,0.0134
17.1,0.0279
17.1028,0.0276
17.1056,0.0468
17.1083,0.0435
17.1111,0.0682
17.1139,0.0665
17.1167,0.0522
17.1194,0.0725
17.1222,0.0831
17.125,0.0856
17.1278,0.091
17.1306,0.0873
17.1333,0.1088
17.1361,0.1097
17.1389,0.1123
17.1417,0.1172
17.1444,0.1217
17.1472,0.1125
17.15,0.1307
17.1528,0.1317
17.1556,0.1272
17.1583,0.1479
17.1611,0.1383
17.1639,0.1396
17.1667,0.1364
17.1694,0.1339
17.1722,0.1459
17.175,0.1546
17.1778,0.1476
17.1806,0.1586
17.1833,0.1493
17.1861,0.1515
17.1889,0.1443
17.1917,0.1532
17.1944,0.1465
17.1972,0.1387
17.2,0.1458
17.2028,0.151
17.2056,0.1697
17.2083,0.139
17.2111,0.1282
17.2139,0.1254
17.2167,0.1248
17.2194,0.1344
17.2222,0.1321
17.225,0.1253
17.2278,0.1198
17.2306,0.1136
17.2333,0.1069
17.2361,0.1303
17.2389,0.1106
17.2417,0.099
17.2444,0.1039
17.2472,0.1056
17.25,0.0974
17.2528,0.0849
17.2556,0.0739
17.2583,0.085
17.2611,0.0526
17.2639,0.058
17.2667,0.0553
17.2694,0.0345
17.2722,0.0385
17.275,0.0258
17.2778,0.0156
17.2806,0.032
17.2833,0.0151
17.2861,0.005
17.2889,0.0053
17.2917,-0.0051
17.2944,-0.01
17.2972,-0.0045
17.3,-0.0052
17.3028,-0.0072
17.3056,0.0063
17.3083,0.0017
17.3111,0.0038
17.3139,0.0101
17.3167,-0.0097
17.3194,-0.0025
17.3222,-0.0056
17.325,0.0123
17.3278,0.0113
17.3306,0.0035
17.3333,0.0008
17.3361,-0.0016
17.3389,-0.0074
17.3417,0.0152
17.3444,-0.0044
17.3472,-0.0025
17.35,-0.023
17.3528,0.0043
17.3556,0.0131
17.3583,-0.0017
17.3611,0.0026
17.3639,0.0012
17.3667,-0.0082
17.3694,-0.0086
17.3722,-0.0001
17.375,-0.0083
17.3778,0.0106
17.3806,0.0187
17.3833,-0.0187
17.3861,0.0023
17.3889,0.0177
17.3917,-0.003
17.3944,0.0078
17.3972,-0.0149
17.4,-0.0054
17.4028,0.0043
17.4056,0.0234
17.4083,0.002
17.4111,0.008
17.4139,-0.0068
17.4167,0.0031
17.4194,0.0113
17.4222,-0.0107
17.425,0.0098
17.4278,0.0029
17.4306,-0.0022
17.4333,-0.0158
17.4361,0.0044
17.4389,-0.0126
17.4417,0.0075
17.4444,0.0013
17.4472,-0.0019
17.45,-0.0182
17.4528,-0.012
17.4556,0.0001
17.4583,-0.0168
17.4611,-0.0028
17.4639,-0.0042
17.4667,0.0134
17.4694,-0.003
17.4722,0.007
17.475,0.0037
17.4778,0.0103
17.4806,0.0218
17.4833,-0.0015
17.4861,0.0045
17.4889,-0.0014
17.4917,0.0146
17.4944,0.0
17.4972,0.0047
17.5,0.0026
17.5028,-0.0142
17.5056,0.0083
17.5083,0.0034
17.5111,-0.0082
17.5139,-0.0033
17.5167,0.0023
17.5194,-0.0
17.5222,-0.0011
17.525,-0.0061
17.5278,-0.0117
17.5306,0.0116
17.5333,0.0105
17.5361,-0.0003
17.5389,-0.011
17.5417,0.0128
17.5444,-0.0012
17.5472,0.0222
17.55,-0.0056
17.5528,-0.006
17.5556,0.0176
17.5583,-0.0011
17.5611,-0.0043
17.5639,-0.0303
17.5667,0.0045
17.5694,-0.0283
17.5722,0.0234
17.575,-0.0097
17.5778,-0.0105
17.5806,-0.0073
17.5833,0.0071
17.5861,-0.003
17.5889,-0.0055
17.5917,-0.0065
17.5944,-0.0019
17.5972,-0.0003
17.6,0.0103
17.6028,0.0039
17.6056,0.0059
17.6083,0.0104
17.6111,0.0022
17.6139,0.0173
17.6167,0.0117
17.6194,0.0074
17.6222,-0.0199
17.625,-0.0089
17.6278,-0.0101
17.6306,0.0113
17.6333,-0.0037
17.6361,-0.0136
17.6389,-0.0004
17.6417,0.0007
17.6444,-0.0009
17.6472,0.0008
17.65,0.0105
17.6528,0.0013
17.6556,-0.0037
17.6583,0.0057
17.6611,0.0096
17.6639,-0.0212
17.6667,-0.0082
17.6694,-0.015
17.6722,0.0053
17.675,-0.0231
17.6778,-0.0235
17.6806,0.0062
17.6833,0.0065
17.6861,0.0156
17.6889,0.012
17.6917,0.023
17.6944,0.0089
17.6972,0.0447
17.7,0.0465
17.7028,0.0484
17.7056,0.0434
17.7083,0.0532
17.7111,0.0451
17.7139,0.05
17.7167,0.053
17.7194,0.055
17.7222,0.0647
17.725,0.0531
17.7278,0.0774
17.7306,0.0643
17.7333,0.0851
17.7361,0.0749
17.7389,0.0846
17.7417,0.0715
17.7444,0.0792
17.7472,0.071
17.75,0.0767
17.7528,0.0963
17.7556,0.0786
17.7583,0.0541
17.7611,0.0798
17.7639,0.0868
17.7667,0.0779
17.7694,0.0617
17.7722,0.0806
17.775,0.0816
17.7778,0.0723
17.7806,0.0618
17.7833,0.0595
17.7861,0.0699
17.7889,0.0528
17.7917,0.048
17.7944,0.0639
17.7972,0.0583
17.8,0.0456
17.8028,0.0519
17.8056,0.0278
17.8083,0.0305
17.8111,0.038
17.8139,0.0259
17.8167,0.033
17.8194,0.0053
17.8222,-0.0089
17.825,-0.0155
17.8278,0.0064
17.8306,0.0088
17.8333,-0.0049
17.8361,0.0019
17.8389,-0.0052
17.8417,0.02
17.8444,-0.0109
17.8472,0.0088
17.85,0.0063
17.8528,-0.024
17.8556,-0.0033
17.8583,0.0122
17.8611,-0.0064
17.8639,-0.0015
17.8667,0.0018
17.8694,-0.0092
17.8722,-0.0042
17.875,0.0016
17.8778,-0.0042
17.8806,0.0007
17.8833,0.0072
17.8861,-0.0064
17.8889,-0.0047
17.8917,-0.0111
17.8944,0.0136
17.8972,-0.0109
17.9,-0.034
17.9028,-0.0286
17.9056,-0.018
17.9083,-0.053
17.9111,-0.0231
17.9139,-0.0042
17.9167,0.1143
17.9194,0.2264
17.9222,0.3127
17.925,0.4065
17.9278,0.5154
17.9306,0.5697
17.9333,0.6444
17.9361,0.6899
17.9389,0.7539
17.9417,0.7758
17.9444,0.8029
17.9472,0.8025
17.95,0.7765
17.9528,0.747
17.9556,0.7201
17.9583,0.6714
17.9611,0.613
17.9639,0.5023
17.9667,0.4134
17.9694,0.3354
17.9722,0.2381
17.975,0.1361
17.9778,0.019
17.9806,-0.016
17.9833,-0.0539
17.9861,-0.0727
17.9889,-0.0837
17.9917,-0.1098
17.9944,-0.1052
17.9972,-0.1062
18.0,-0.1212
18.0028,-0.0978
18.0056,-0.0948
18.0083,-0.1087
18.0111,-0.0771
18.0139,-0.066
18.0167,-0.0434
18.0194,-0.0097
18.0222,0.0014
18.025,0.0047
18.0278,0.0109
18.0306,-0.0044
18.0333,0.0039
18.0361,-0.0063
18.0389,-0.0123
18.0417,0.002
18.0444,-0.0042
18.0472,-0.0017
18.05,-0.0063
18.0528,-0.0038
18.0556,0.0061
18.0583,-0.0118
18.0611,0.011
18.0639,-0.008
18.0667,-0.0164
18.0694,-0.0081
18.0722,0.0107
18.075,0.0067
18.0778,-0.002
18.0806,-0.0135
18.0833,-0.0096
18.0861,-0.0038
18.0889,-0.0025
18.0917,-0.003
18.0944,-0.0149
18.0972,0.009
18.1,0.0046
18.1028,-0.0064
18.1056,0.0145
18.1083,-0.0026
18.1111,-0.0009
18.1139,0.0058
18.1167,-0.0038
18.1194,0.0146
18.1222,0.0013
18.125,0.0032
18.1278,-0.0084
18.1306,0.0119
18.1333,0.0167
18.1361,0.0172
18.1389,0.0176
18.1417,0.0295
18.1444,0.0518
18.1472,0.0298
18.15,0.0557
18.1528,0.0472
18.1556,0.0599
18.1583,0.07
18.1611,0.093
18.1639,0.0779
18.1667,0.0958
18.1694,0.0821
18.1722,0.0875
18.175,0.1062
18.1778,0.1224
18.1806,0.1088
18.1833,0.111
18.1861,0.123
18.1889,0.1297
18.1917,0.1197
18.1944,0.1146
18.1972,0.127
18.2,0.1279
18.2028,0.1297
18.2056,0.1369
18.2083,0.1597
18.2111,0.1276
18.2139,0.1357
18.2167,0.1558
18.2194,0.1544
18.2222,0.1492
18.225,0.1568
18.2278,0.159
18.2306,0.1692
18.2333,0.162
18.2361,0.1521
18.2389,0.1323
18.2417,0.158
18.2444,0.1491
18.2472,0.138
18.25,0.1505
18.2528,0.1541
18.2556,0.1428
18.2583,0.1653
18.2611,0.1453
18.2639,0.1165
18.2667,0.1252
18.2694,0.1291
18.2722,0.1297
18.275,0.1327
18.2778,0.1177
18.2806,0.1453
18.2833,0.1188
18.2861,0.1097
18.2889,0.0961
18.2917,0.0997
18.2944,0.0865
18.2972,0.094
18.3,0.0786
18.3028,0.0869
18.3056,0.073
18.3083,0.0823
18.3111,0.0582
18.3139,0.0648
18.3167,0.0662
18.3194,0.0538
18.3222,0.056
18.325,0.04
18.3278,0.0281
18.3306,0.029
18.3333,0.0238
18.3361,0.0104
18.3389,0.0245
18.3417,0.0096
18.3444,-0.0038
18.3472,-0.0188
18.35,0.009
18.3528,-0.0129
18.3556,0.0169
18.3583,0.0115
18.3611,0.0074
18.3639,0.0099
18.3667,-0.0105
18.3694,-0.025
18.3722,0.0098
18.375,0.0215
18.3778,0.0091
18.3806,0.0085
18.3833,-0.0065
18.3861,-0.01
18.3889,-0.0
18.3917,0.0188
18.3944,0.0002
18.3972,-0.0035
18.4,0.0058
18.4028,0.0029
18.4056,0.0105
18.4083,0.0022
18.4111,-0.0125
18.4139,-0.004
18.4167,-0.0056
18.4194,-0.0058
18.4222,-0.0073
18.425,0.006
18.4278,-0.0029
18.4306,-0.0054
18.4333,-0.0034
18.4361,0.0061
18.4389,-0.0001
18.4417,0.0048
18.4444,-0.0091
18.4472,0.0022
18.45,-0.0091
18.4528,0.0048
18.4556,0.0119
18.4583,0.0018
18.4611,0.0127
18.4639,0.0024
18.4667,0.0094
18.4694,0.0074
18.4722,-0.0018
18.475,-0.0016
18.4778,0.0141
18.4806,-0.0052
18.4833,-0.0098
18.4861,0.0081
18.4889,-0.0204
18.4917,-0.0114
18.4944,-0.0019
18.4972,0.0104
18.5,-0.0032
18.5028,-0.0113
18.5056,0.0132
18.5083,0.0094
18.5111,0.0023
18.5139,0.0096
18.5167,0.0055
18.5194,0.0264
18.5222,-0.0196
18.525,0.0113
18.5278,0.0134
18.5306,-0.0021
18.5333,0.002
18.5361,-0.0084
18.5389,0.0006
18.5417,0.0028
18.5444,0.0031
18.5472,0.0023
18.55,0.0083
18.5528,0.0246
18.5556,0.0024
18.5583,0.0005
18.5611,-0.007
18.5639,0.0096
18.5667,-0.0091
18.5694,0.0061
18.5722,-0.0135
18.575,0.0169
18.5778,-0.0141
18.5806,-0.0011
18.5833,0.0095
18.5861,-0.0038
18.5889,-0.0152
18.5917,-0.0086
18.5944,0.0021
18.5972,-0.0202
18.6,0.0018
18.6028,0.0023
18.6056,-0.0172
18.6083,0.0206
18.6111,-0.0002
18.6139,-0.0072
18.6167,0.0205
18.6194,-0.0025
18.6222,0.0049
18.625,0.0117
18.6278,0.0017
18.6306,0.0059
18.6333,-0.0091
18.6361,-0.0103
18.6389,-0.0013
18.6417,-0.0094
18.6444,-0.0197
18.6472,0.0052
18.65,-0.0083
18.6528,0.0161
18.6556,0.0031
18.6583,-0.0086
18.6611,0.0083
18.6639,-0.0111
18.6667,0.0005
18.6694,0.0085
18.6722,-0.0072
18.675,0.001
18.6778,0.0061
18.6806,0.0162
18.6833,-0.0116
18.6861,0.0138
18.6889,0.0136
18.6917,-0.0038
18.6944,0.0116
18.6972,-0.0076
18.7,-0.0115
18.7028,-0.0203
18.7056,0.0072
18.7083,-0.0069
18.7111,-0.0216
18.7139,0.0191
18.7167,0.0127
18.7194,0.0051
18.7222,-0.0099
18.725,-0.0262
18.7278,-0.0018
18.7306,0.0185
18.7333,-0.0083
18.7361,-0.0085
18.7389,-0.002
18.7417,-0.005
18.7444,0.0184
18.7472,0.0026
18.75,0.0097
18.7528,0.0318
18.7556,0.0182
18.7583,0.0265
18.7611,0.0172
18.7639,0.0235
18.7667,0.0547
18.7694,0.0334
18.7722,0.0453
18.775,0.0468
18.7778,0.0513
18.7806,0.0672
18.7833,0.0514
18.7861,0.0657
18.7889,0.0766
18.7917,0.064
18.7944,0.0788
18.7972,0.0796
18.8,0.0752
18.8028,0.0786
18.8056,0.077
18.8083,0.0746
18.8111,0.079
18.8139,0.0684
18.8167,0.0788
18.8194,0.0818
18.8222,0.0875
18.825,0.0778
18.8278,0.0594
18.8306,0.0589
18.8333,0.0916
18.8361,0.0856
18.8389,0.0781
18.8417,0.0771
18.8444,0.0571
18.8472,0.0538
18.85,0.0271
18.8528,0.0387
18.8556,0.0501
18.8583,0.0379
18.8611,0.0443
18.8639,0.0305
18.8667,0.0242
18.8694,-0.0026
18.8722,0.0337
18.875,0.0301
18.8778,0.0049
18.8806,-0.0059
18.8833,-0.0011
18.8861,-0.0046
18.8889,0.0018
18.8917,-0.005
18.8944,-0.0083
18.8972,-0.0027
18.9,0.0173
18.9028,-0.0081
18.9056,0.0165
18.9083,-0.0139
18.9111,-0.0076
18.9139,-0.0075
18.9167,0.0135
18.9194,0.0056
18.9222,-0.0199
18.925,-0.0081
18.9278,-0.0138
18.9306,0.0037
18.9333,0.0047
18.9361,0.0053
18.9389,0.0109
18.9417,-0.0124
18.9444,-0.0124
18.9472,-0.0524
18.95,-0.0269
18.9528,-0.052
18.9556,-0.0331
18.9583,-0.0209
18.9611,0.002
18.9639,0.1162
18.9667,0.2398
18.9694,0.3238
18.9722,0.4208
18.975,0.5203
18.9778,0.6035
18.9806,0.6777
18.9833,0.7364
18.9861,0.7702
18.9889,0.813
18.9917,0.8112
18.9944,0.7756
18.9972,0.754
19.0,0.7119
19.0028,0.6627
19.0056,0.5856
19.0083,0.5105
19.0111,0.3766
19.0139,0.2912
19.0167,0.1681
19.0194,0.0485
19.0222,-0.0085
19.025,-0.0397
19.0278,-0.0624
19.0306,-0.0784
19.0333,-0.0853
19.0361,-0.1157
19.0389,-0.1323
19.0417,-0.1251
19.0444,-0.1097
19.0472,-0.0911
19.05,-0.0969
19.0528,-0.0839
19.0556,-0.0173
19.0583,-0.0168
19.0611,-0.0021
19.0639,0.0001
19.0667,-0.0073
19.0694,-0.0012
19.0722,0.0057
19.075,-0.0109
19.0778,-0.0002
19.0806,0.0076
19.0833,-0.0123
19.0861,-0.0063
19.0889,-0.0038
19.0917,-0.0075
19.0944,-0.0002
19.0972,0.0142
19.1,-0.0017
19.1028,0.0071
19.1056,-0.0051
19.1083,0.0036
19.1111,0.0082
19.1139,0.0175
19.1167,0.0055
19.1194,-0.0022
19.1222,-0.0028
19.125,-0.0008
19.1278,-0.0006
19.1306,0.002
19.1333,0.0168
19.1361,0.0183
19.1389,0.0073
19.1417,0.0058
19.1444,0.0052
19.1472,0.0168
19.15,0.0042
19.1528,0.0094
19.1556,0.0023
19.1583,-0.0085
19.1611,-0.0041
19.1639,0.0115
19.1667,0.0343
19.1694,0.0088
19.1722,0.0411
19.175,0.0435
19.1778,0.0352
19.1806,0.0557
19.1833,0.0472
19.1861,0.0734
19.1889,0.05
19.1917,0.0678
19.1944,0.0743
19.1972,0.0711
19.2,0.0911
19.2028,0.0948
19.2056,0.0831
19.2083,0.1226
19.2111,0.1147
19.2139,0.1077
19.2167,0.1104
19.2194,0.0991
19.2222,0.1213
19.225,0.1184
19.2278,0.1302
19.2306,0.1319
19.2333,0.148
19.2361,0.1531
19.2389,0.1421
19.2417,0.1336
19.2444,0.1381
19.2472,0.157
19.25,0.165
19.2528,0.143
19.2556,0.1534
19.2583,0.1623
19.2611,0.1619
19.2639,0.1524
19.2667,0.1502
19.2694,0.1495
19.2722,0.1366
19.275,0.1353
19.2778,0.1429
19.2806,0.1404
19.2833,0.1283
19.2861,0.15
19.2889,0.1354
19.2917,0.1326
19.2944,0.1472
19.2972,0.1291
19.3,0.1095
19.3028,0.102
19.3056,0.1082
19.3083,0.1011
19.3111,0.0982
19.3139,0.0917
19.3167,0.098
19.3194,0.0785
19.3222,0.0736
19.325,0.0808
19.3278,0.0687
19.3306,0.0495
19.3333,0.0574
19.3361,0.054
19.3389,0.0363
19.3417,0.038
19.3444,0.0467
19.3472,0.0451
19.35,0.0343
19.3528,-0.0016
19.3556,-0.0074
19.3583,-0.0078
19.3611,0.0072
19.3639,0.0017
19.3667,-0.017
19.3694,-0.0101
19.3722,0.0003
19.375,0.001
19.3778,-0.0096
19.3806,0.0004
19.3833,0.0008
19.3861,-0.0031
19.3889,0.0121
19.3917,0.0021
19.3944,-0.0126
19.3972,-0.0111
19.4,-0.0123
19.4028,0.0338
19.4056,0.0113
19.4083,0.0065
19.4111,-0.0234
19.4139,-0.0015
19.4167,-0.0048
19.4194,-0.0027
19.4222,0.0196
19.425,-0.0272
19.4278,0.0178
19.4306,0.0077
19.4333,-0.0043
19.4361,-0.0001
19.4389,-0.0133
19.4417,-0.0013
19.4444,0.0007
19.4472,-0.0134
19.45,0.0137
19.4528,0.0008
19.4556,0.012
19.4583,-0.0038
19.4611,0.0193
19.4639,-0.0186
19.4667,-0.0081
19.4694,-0.006
19.4722,0.0023
19.475,0.0125
19.4778,0.0142
19.4806,0.014
19.4833,-0.0064
19.4861,0.0015
19.4889,0.0204
19.4917,0.0001
19.4944,-0.0055
19.4972,0.009
19.5,0.0109
19.5028,0.0049
19.5056,-0.0105
19.5083,0.0057
19.5111,0.0116
19.5139,-0.0039
19.5167,-0.016
19.5194,-0.0034
19.5222,-0.0051
19.525,-0.0087
19.5278,0.0044
19.5306,-0.0134
19.5333,-0.0172
19.5361,0.0067
19.5389,0.0051
19.5417,-0.0085
19.5444,0.0062
19.5472,0.0031
19.55,0.0141
19.5528,-0.0034
19.5556,0.0084
19.5583,0.0109
19.5611,-0.0129
19.5639,-0.0077
19.5667,-0.0087
19.5694,-0.0062
19.5722,-0.0007
19.575,-0.0006
19.5778,0.0052
19.5806,0.0026
19.5833,0.0076
19.5861,0.0047
19.5889,0.01
19.5917,0.0035
19.5944,0.0118
19.5972,-0.0103
19.6,0.0008
19.6028,0.0044
19.6056,-0.0096
19.6083,-0.0203
19.6111,-0.0075
19.6139,-0.0149
19.6167,-0.0062
19.6194,-0.0002
19.6222,0.0189
19.625,-0.0023
19.6278,0.0037
19.6306,0.0012
19.6333,-0.014
19.6361,0.005
19.6389,0.0034
19.6417,0.0041
19.6444,0.0046
19.6472,0.0199
19.65,-0.0143
19.6528,-0.0072
19.6556,0.0029
19.6583,-0.0034
19.6611,-0.006
19.6639,0.0036
19.6667,0.0034
19.6694,0.0059
19.6722,0.0015
19.675,-0.0142
19.6778,-0.0077
19.6806,-0.0154
19.6833,0.0059
19.6861,0.0012
19.6889,0.009
19.6917,0.0082
19.6944,0.0123
19.6972,0.0073
19.7,0.0046
19.7028,0.0024
19.7056,0.0002
19.7083,0.0021
19.7111,0.0016
19.7139,-0.0154
19.7167,-0.0074
19.7194,0.0062
19.7222,0.0061
19.725,-0.0009
19.7278,-0.0061
19.7306,-0.0141
19.7333,-0.0034
19.7361,0.0174
19.7389,0.0117
19.7417,0.002
19.7444,0.0136
19.7472,0.0195
19.75,0.0195
19.7528,0.028
19.7556,0.016
19.7583,0.0263
19.7611,0.061
19.7639,0.0342
19.7667,0.0419
19.7694,0.044
19.7722,0.0629
19.775,0.0518
19.7778,0.0472
19.7806,0.0529
19.7833,0.0615
19.7861,0.0787
19.7889,0.0678
19.7917,0.0718
19.7944,0.0841
19.7972,0.0703
19.8,0.0739
19.8028,0.0658
19.8056,0.0814
19.8083,0.078
19.8111,0.0855
19.8139,0.0761
19.8167,0.0746
19.8194,0.079
19.8222,0.0605
19.825,0.0949
19.8278,0.0835
19.8306,0.0714
19.8333,0.0787
19.8361,0.0577
19.8389,0.0662
19.8417,0.065
19.8444,0.0621
19.8472,0.0832
19.85,0.0574
19.8528,0.0485
19.8556,0.0395
19.8583,0.0479
19.8611,0.0485
19.8639,0.0401
19.8667,0.0423
19.8694,0.0287
19.8722,0.0514
19.875,0.0251
19.8778,0.0209
19.8806,-0.0096
19.8833,0.0058
19.8861,0.0133
19.8889,-0.0087
19.8917,-0.0096
19.8944,-0.0096
19.8972,0.0056
19.9,-0.0045
19.9028,-0.006
19.9056,0.0099
19.9083,-0.0017
19.9111,0.0009
19.9139,0.0046
19.9167,0.0016
19.9194,0.0007
19.9222,0.0117
19.925,0.0064
19.9278,-0.012
19.9306,0.0057
19.9333,-0.0043
19.9361,0.0086
19.9389,0.0025
19.9417,-0.0006
19.9444,0.0014
19.9472,-0.0048
19.95,0.0012
19.9528,-0.0307
19.9556,-0.0426
19.9583,-0.0361
19.9611,-0.0351
19.9639,-0.0394
19.9667,-0.0044
19.9694,0.0821
19.9722,0.1831
19.975,0.3022
19.9778,0.3863
19.9806,0.476
19.9833,0.5649
19.9861,0.6492
19.9889,0.7097
19.9917,0.7634
19.9944,0.7833
19.9972,0.8098
20.0,0.7971
20.0028,0.7744
20.0056,0.7538
20.0083,0.6864
20.0111,0.646
20.0139,0.5742
20.0167,0.4893
20.0194,0.3815
20.0222,0.2757
20.025,0.1872
20.0278,0.0775
20.0306,-0.0022
20.0333,-0.018
20.0361,-0.0605
20.0389,-0.0678
20.0417,-0.0892
20.0444,-0.0968
20.0472,-0.1074
20.05,-0.1145
20.0528,-0.1101
20.0556,-0.096
20.0583,-0.0841
20.0611,-0.0904
20.0639,-0.0528
20.0667,-0.0568
20.0694,-0.0123
20.0722,0.0174
20.075,-0.0062
20.0778,0.0084
20.0806,-0.003
20.0833,-0.0116
20.0861,0.0067
20.0889,-0.0059
20.0917,-0.0093
20.0944,-0.0044
20.0972,-0.0103
20.1,0.0044
20.1028,0.0017
20.1056,-0.002
20.1083,0.0012
20.1111,-0.0096
20.1139,0.002
20.1167,0.0032
20.1194,-0.0132
20.1222,0.02
20.125,-0.0125
20.1278,-0.0018
20.1306,-0.0028
20.1333,0.0101
20.1361,0.0038
20.1389,0.0014
20.1417,-0.0085
20.1444,-0.0022
20.1472,-0.0003
20.15,-0.0034
20.1528,0.0024
20.1556,-0.0011
20.1583,0.0091
20.1611,-0.0031
20.1639,0.0007
20.1667,-0.0114
20.1694,0.0074
20.1722,0.0098
20.175,0.0016
20.1778,0.0062
20.1806,0.0234
20.1833,0.0283
20.1861,0.0284
20.1889,0.0384
20.1917,0.0379
20.1944,0.0321
20.1972,0.0496
20.2,0.0657
20.2028,0.0674
20.2056,0.0887
20.2083,0.0837
20.2111,0.0633
20.2139,0.0872
20.2167,0.0765
20.2194,0.0961
20.2222,0.0957
20.225,0.1026
20.2278,0.1157
20.2306,0.1104
20.2333,0.1007
20.2361,0.1129
20.2389,0.1176
20.2417,0.1142
20.2444,0.1317
20.2472,0.1494
20.25,0.124
20.2528,0.1283
20.2556,0.1391
20.2583,0.1491
20.2611,0.1463
20.2639,0.1587
20.2667,0.1448
20.2694,0.1499
20.2722,0.1602
20.275,0.1501
20.2778,0.1495
20.2806,0.1498
20.2833,0.1485
20.2861,0.1622
20.2889,0.1496
20.2917,0.1595
20.2944,0.1446
20.2972,0.1465
20.3,0.1364
20.3028,0.1365
20.3056,0.1318
20.3083,0.1487
20.3111,0.1186
20.3139,0.1235
20.3167,0.142
20.3194,0.0998
20.3222,0.1165
20.325,0.1357
20.3278,0.092
20.3306,0.1052
20.3333,0.0863
20.3361,0.0892
20.3389,0.0906
20.3417,0.0928
20.3444,0.0521
20.3472,0.0654
20.35,0.0662
20.3528,0.0571
20.3556,0.0609
20.3583,0.0426
20.3611,0.0575
20.3639,0.0282
20.3667,0.0293
20.3694,0.0179
20.3722,0.0258
20.375,0.023
20.3778,0.008
20.3806,0.007
20.3833,-0.0119
20.3861,-0.0056
20.3889,0.0025
20.3917,-0.0035
20.3944,0.0098
20.3972,-0.0116
20.4,-0.0138
20.4028,-0.0162
20.4056,0.0079
20.4083,0.0171
20.4111,0.0097
20.4139,-0.0063
20.4167,0.0027
20.4194,0.0083
20.4222,0.0002
20.425,0.0052
20.4278,0.0193
20.4306,-0.002
20.4333,-0.0036
20.4361,0.0078
20.4389,-0.0041
20.4417,-0.0051
20.4444,0.0057
20.4472,-0.0105
20.45,0.0108
20.4528,-0.0233
20.4556,-0.0094
20.4583,-0.002
20.4611,-0.0076
20.4639,0.0116
20.4667,0.0023
20.4694,-0.0007
20.4722,-0.0084
20.475,0.0102
20.4778,-0.0031
20.4806,0.0006
20.4833,-0.0044
20.4861,0.0005
20.4889,-0.002
20.4917,0.0011
20.4944,0.0074
20.4972,0.0221
20.5,0.0045
20.5028,0.0094
20.5056,0.0003
20.5083,0.0115
20.5111,-0.0151
20.5139,-0.0156
20.5167,0.0162
20.5194,0.001
20.5222,-0.0076
20.525,0.0033
20.5278,-0.0015
20.5306,-0.0079
20.5333,0.0131
20.5361,-0.0054
20.5389,-0.0048
20.5417,0.0032
20.5444,-0.0082
20.5472,-0.005
20.55,-0.0025
20.5528,0.008
20.5556,-0.0179
20.5583,-0.004
20.5611,0.0025
20.5639,0.0106
20.5667,-0.0033
20.5694,-0.0068
20.5722,-0.0045
20.575,0.0004
20.5778,0.0034
20.5806,0.0095
20.5833,-0.0055
20.5861,0.0092
20.5889,0.0011
20.5917,-0.0083
20.5944,0.0059
20.5972,0.0029
20.6,-0.0019
20.6028,0.0005
20.6056,-0.0063
20.6083,0.0057
20.6111,-0.0095
20.6139,-0.0089
20.6167,-0.0006
20.6194,-0.0054
20.6222,-0.0025
20.625,-0.01
20.6278,0.001
20.6306,-0.0176
20.6333,0.001
20.6361,0.0068
20.6389,0.0005
20.6417,0.0057
20.6444,-0.0035
20.6472,0.0026
20.65,0.001
20.6528,0.0107
20.6556,-0.0008
20.6583,0.0105
20.6611,0.0068
20.6639,-0.0097
20.6667,0.0063
20.6694,0.0135
20.6722,0.0047
20.675,0.0117
20.6778,-0.0013
20.6806,0.003
20.6833,0.0017
20.6861,0.0217
20.6889,0.0104
20.6917,0.0182
20.6944,-0.0016
20.6972,0.0053
20.7,-0.0012
20.7028,0.009
20.7056,0.0035
20.7083,0.002
20.7111,0.0117
20.7139,0.0027
20.7167,-0.023
20.7194,-0.0029
20.7222,-0.0245
20.725,0.0185
20.7278,0.0041
20.7306,0.0042
20.7333,0.0068
20.7361,0.0067
20.7389,0.0032
20.7417,-0.0038
20.7444,-0.0137
20.7472,-0.0034
20.75,-0.0087
20.7528,-0.0084
20.7556,-0.0118
20.7583,0.0019
20.7611,-0.0038
20.7639,-0.0032
20.7667,-0.0207
20.7694,0.0156
20.7722,0.0179
20.775,-0.001
20.7778,0.0233
20.7806,0.013
20.7833,0.0237
20.7861,0.0449
20.7889,0.0333
20.7917,0.0499
20.7944,0.0522
20.7972,0.0305
20.8,0.0627
20.8028,0.0634
20.8056,0.0417
20.8083,0.0527
20.8111,0.0639
20.8139,0.0703
20.8167,0.0531
20.8194,0.0591
20.8222,0.0666
20.825,0.0787
20.8278,0.0867
20.8306,0.0677
20.8333,0.07
20.8361,0.0781
20.8389,0.0852
20.8417,0.0828
20.8444,0.074
20.8472,0.0662
20.85,0.0673
20.8528,0.0747
20.8556,0.0739
20.8583,0.0478
20.8611,0.0704
20.8639,0.0708
20.8667,0.0621
20.8694,0.0528
20.8722,0.0404
20.875,0.0511
20.8778,0.0597
20.8806,0.0487
20.8833,0.0739
20.8861,0.0507
20.8889,0.026
20.8917,0.014
20.8944,0.0202
20.8972,0.0112
20.9,0.0202
20.9028,0.0019
20.9056,0.0177
20.9083,-0.0031
20.9111,-0.0108
20.9139,-0.0031
20.9167,0.0109
20.9194,0.0041
20.9222,0.0044
20.925,-0.008
20.9278,0.0003
20.9306,-0.0151
20.9333,-0.0101
20.9361,0.0143
20.9389,-0.0107
20.9417,0.0102
20.9444,-0.0023
20.9472,0.0088
20.95,-0.0145
20.9528,0.0038
20.9556,0.01
20.9583,-0.0083
20.9611,0.0039
20.9639,-0.0077
20.9667,-0.0094
20.9694,-0.0286
20.9722,-0.045
20.975,-0.039
20.9778,-0.0514
20.9806,-0.0149
20.9833,-0.0156
20.9861,0.0574
20.9889,0.1755
20.9917,0.2887
20.9944,0.3822
20.9972,0.477
21.0,0.575
21.0028,0.6633
21.0056,0.7161
21.0083,0.7555
21.0111,0.8077
21.0139,0.7958
21.0167,0.793
21.0194,0.7663
21.0222,0.7025
21.025,0.6685
21.0278,0.5866
21.0306,0.5124
21.0333,0.4178
21.0361,0.2992
21.0389,0.1964
21.0417,0.072
21.0444,-0.0021
21.0472,-0.0526
21.05,-0.0625
21.0528,-0.0891
21.0556,-0.0979
21.0583,-0.1278
21.0611,-0.1139
21.0639,-0.1117
21.0667,-0.1148
21.0694,-0.1233
21.0722,-0.075
21.075,-0.0682
21.0778,-0.0331
21.0806,-0.0141
21.0833,0.0047
21.0861,-0.0082
21.0889,0.0008
21.0917,0.0044
21.0944,0.0015
21.0972,0.0087
21.1,0.0077
21.1028,-0.0005
21.1056,0.0024
21.1083,0.0247
21.1111,-0.0091
21.1139,-0.0035
21.1167,0.005
21.1194,0.0018
21.1222,-0.0134
21.125,-0.0056
21.1278,0.013
21.1306,0.0116
21.1333,0.0037
21.1361,-0.0049
21.1389,0.0215
21.1417,0.0023
21.1444,-0.0186
21.1472,-0.0024
21.15,-0.0097
21.1528,0.0095
21.1556,0.0174
21.1583,0.0112
21.1611,-0.0123
21.1639,0.022
21.1667,0.0072
21.1694,-0.0029
21.1722,0.0236
21.175,-0.0047
21.1778,0.01
21.1806,0.005
21.1833,0.0077
21.1861,0.0085
21.1889,0.0292
21.1917,0.0377
21.1944,0.045
21.1972,0.0282
21.2,0.0436
21.2028,0.0571
21.2056,0.062
21.2083,0.043
21.2111,0.0782
21.2139,0.0889
21.2167,0.0752
21.2194,0.0889
21.2222,0.0999
21.225,0.0903
21.2278,0.1165
21.2306,0.1045
21.2333,0.1115
21.2361,0.1199
21.2389,0.1338
21.2417,0.1169
21.2444,0.1328
21.2472,0.1428
21.25,0.1277
21.2528,0.132
21.2556,0.1363
21.2583,0.1486
21.2611,0.1419
21.2639,0.1424
21.2667,0.1306
21.2694,0.1705
21.2722,0.1556
21.275,0.1566
21.2778,0.1536
21.2806,0.1434
21.2833,0.1461
21.2861,0.1469
21.2889,0.1366
21.2917,0.1401
21.2944,0.1315
21.2972,0.1453
21.3,0.1334
21.3028,0.137
21.3056,0.1302
21.3083,0.146
21.3111,0.1186
21.3139,0.1142
21.3167,0.1277
21.3194,0.1074
21.3222,0.1094
21.325,0.1127
21.3278,0.1122
21.3306,0.0793
21.3333,0.0909
21.3361,0.0951
21.3389,0.0878
21.3417,0.0457
21.3444,0.0584
21.3472,0.0698
21.35,0.0591
21.3528,0.0344
21.3556,0.0367
21.3583,0.0239
21.3611,0.0284
21.3639,0.0297
21.3667,0.0214
21.3694,0.0158
21.3722,0.0067
21.375,0.0006
21.3778,0.007
21.3806,-0.0131
21.3833,0.0205
21.3861,-0.0064
21.3889,-0.013
21.3917,0.0037
21.3944,-0.0024
21.3972,-0.0025
21.4,-0.0033
21.4028,0.0031
21.4056,0.0016
21.4083,-0.0094
21.4111,-0.0026
21.4139,0.0026
21.4167,-0.0078
21.4194,-0.0032
21.4222,-0.0101
21.425,-0.0014
21.4278,0.0184
21.4306,0.014
21.4333,-0.0086
21.4361,0.0004
21.4389,-0.0035
21.4417,0.0155
21.4444,0.0006
21.4472,-0.0026
21.45,0.0043
21.4528,-0.0089
21.4556,-0.0033
21.4583,-0.006
21.4611,0.0063
21.4639,-0.0018
21.4667,0.0141
21.4694,-0.0035
21.4722,-0.0064
21.475,0.004
21.4778,0.0083
21.4806,0.0092
21.4833,0.0091
21.4861,0.0032
21.4889,0.022
21.4917,0.0156
21.4944,0.0142
21.4972,0.0126
21.5,-0.0107
21.5028,-0.0163
21.5056,-0.0089
21.5083,-0.0105
21.5111,-0.0099
21.5139,0.0226
21.5167,-0.011
21.5194,0.0052
21.5222,0.0053
21.525,0.004
21.5278,-0.01
21.5306,0.0137
21.5333,0.0194
21.5361,0.007
21.5389,0.0013
21.5417,-0.0004
21.5444,-0.0114
21.5472,0.0077
21.55,-0.0147
21.5528,-0.0117
21.5556,0.003
21.5583,0.0
21.5611,0.007
21.5639,0.0182
21.5667,-0.0132
21.5694,-0.0172
21.5722,-0.0137
21.575,0.0022
21.5778,0.0007
21.5806,0.0006
21.5833,0.0075
21.5861,-0.0093
21.5889,0.0135
21.5917,-0.0022
21.5944,0.0005
21.5972,-0.0153
21.6,0.0115
21.6028,-0.0073
21.6056,0.0008
21.6083,0.0014
21.6111,-0.0036
21.6139,-0.0021
21.6167,-0.0096
21.6194,0.0052
21.6222,-0.0075
21.625,0.0266
21.6278,0.0141
21.6306,-0.0087
21.6333,0.0206
21.6361,0.0087
21.6389,-0.0012
21.6417,0.0093
21.6444,-0.0013
21.6472,0.0053
21.65,0.013
21.6528,0.0017
21.6556,0.0085
21.6583,0.0132
21.6611,0.0089
21.6639,0.0097
21.6667,0.0045
21.6694,-0.0043
21.6722,0.0115
21.675,0.0122
21.6778,-0.0087
21.6806,0.0086
21.6833,-0.004
21.6861,0.0006
21.6889,-0.0032
21.6917,0.0079
21.6944,-0.0087
21.6972,0.0165
21.7,0.0133
21.7028,-0.0263
21.7056,0.0087
21.7083,0.0074
21.7111,-0.0063
21.7139,0.0018
21.7167,-0.002
21.7194,-0.0162
21.7222,0.0049
21.725,-0.0012
21.7278,-0.0197
21.7306,0.0171
21.7333,0.0017
21.7361,0.0139
21.7389,0.011
21.7417,0.015
21.7444,0.0123
21.7472,0.0081
21.75,-0.0014
21.7528,-0.0068
21.7556,-0.0024
21.7583,-0.007
21.7611,0.0209
21.7639,0.0076
21.7667,0.0234
21.7694,0.0165
21.7722,0.0229
21.775,0.0358
21.7778,0.0265
21.7806,0.0437
21.7833,0.0429
21.7861,0.0362
21.7889,0.0406
21.7917,0.044
21.7944,0.0561
21.7972,0.0607
21.8,0.0615
21.8028,0.0559
21.8056,0.0756
21.8083,0.0608
21.8111,0.0767
21.8139,0.0841
21.8167,0.0695
21.8194,0.0943
21.8222,0.0841
21.825,0.0936
21.8278,0.0591
21.8306,0.0721
21.8333,0.094
21.8361,0.0695
21.8389,0.0842
21.8417,0.0775
21.8444,0.0809
21.8472,0.0868
21.85,0.0679
21.8528,0.0794
21.8556,0.0852
21.8583,0.0729
21.8611,0.0522
21.8639,0.0632
21.8667,0.0623
21.8694,0.0433
21.8722,0.0517
21.875,0.0395
21.8778,0.0573
21.8806,0.0756
21.8833,0.0296
21.8861,0.0457
21.8889,0.0492
21.8917,0.0183
21.8944,0.0319
21.8972,0.0301
21.9,0.024
21.9028,0.0127
21.9056,-0.0067
21.9083,0.0101
21.9111,-0.0206
21.9139,-0.0084
21.9167,0.0216
21.9194,-0.0014
21.9222,0.0037
21.925,-0.0128
21.9278,0.0309
21.9306,0.0034
21.9333,-0.0047
21.9361,0.0005
21.9389,0.0046
21.9417,0.0126
21.9444,0.0023
21.9472,0.009
21.95,-0.021
21.9528,0.01
21.9556,0.008
21.9583,0.0142
21.9611,0.0009
21.9639,-0.0049
21.9667,-0.0167
21.9694,-0.0035
21.9722,-0.0254
21.975,0.0023
21.9778,0.0052
21.9806,-0.003
21.9833,-0.0081
21.9861,-0.0188
21.9889,-0.032
21.9917,-0.0569
21.9944,-0.0432
21.9972,-0.0344
22.0,-0.0221
22.0028,-0.0081
22.0056,0.0403
22.0083,0.14
22.0111,0.2415
22.0139,0.3478
22.0167,0.4283
22.0194,0.5134
22.0222,0.6004
22.025,0.6422
22.0278,0.7073
22.0306,0.7238
22.0333,0.7809
22.0361,0.8079
22.0389,0.8035
22.0417,0.7802
22.0444,0.7693
22.0472,0.7309
22.05,0.6917
22.0528,0.608
22.0556,0.5587
22.0583,0.4645
22.0611,0.3832
22.0639,0.2896
22.0667,0.1995
22.0694,0.0835
22.0722,-0.0002
22.075,-0.0501
22.0778,-0.0477
22.0806,-0.0596
22.0833,-0.0788
22.0861,-0.0985
22.0889,-0.1191
22.0917,-0.1014
22.0944,-0.1339
22.0972,-0.0979
22.1,-0.1155
22.1028,-0.1018
22.1056,-0.0921
22.1083,-0.0772
22.1111,-0.0625
22.1139,-0.0287
22.1167,-0.0185
22.1194,0.0059
22.1222,-0.0008
22.125,-0.0015
22.1278,0.0041
22.1306,0.017
22.1333,-0.0004
22.1361,0.0109
22.1389,-0.0117
22.1417,0.0073
22.1444,0.0092
22.1472,-0.0079
22.15,-0.0115
22.1528,0.0144
22.1556,0.0016
22.1583,-0.0002
22.1611,-0.0062
22.1639,-0.0049
22.1667,0.0141
22.1694,0.0111
22.1722,-0.0148
22.175,-0.0102
22.1778,0.0098
22.1806,-0.0071
22.1833,-0.01
22.1861,0.0069
22.1889,-0.0005
22.1917,0.0051
22.1944,0.0114
22.1972,-0.0042
22.2,0.002
22.2028,0.0006
22.2056,-0.0047
22.2083,0.0053
22.2111,-0.0009
22.2139,-0.0179
22.2167,0.0027
22.2194,-0.0014
22.2222,0.0106
22.225,-0.0003
22.2278,-0.0041
22.2306,-0.0055
22.2333,0.0084
22.2361,0.0074
22.2389,0.0173
22.2417,0.0285
22.2444,0.0365
22.2472,0.0413
22.25,0.0264
22.2528,0.0721
22.2556,0.0596
22.2583,0.0619
22.2611,0.0543
22.2639,0.0651
22.2667,0.0843
22.2694,0.0856
22.2722,0.0971
22.275,0.1058
22.2778,0.0893
22.2806,0.1031
22.2833,0.1099
22.2861,0.1157
22.2889,0.118
22.2917,0.1307
22.2944,0.1185
22.2972,0.1069
22.3,0.1162
22.3028,0.1352
22.3056,0.1372
22.3083,0.1392
22.3111,0.1374
22.3139,0.1279
22.3167,0.1369
22.3194,0.1387
22.3222,0.1389
22.325,0.1534
22.3278,0.1454
22.3306,0.1554
22.3333,0.1403
22.3361,0.1628
22.3389,0.1485
22.3417,0.1536
22.3444,0.1495
22.3472,0.1476
22.35,0.1385
22.3528,0.1403
22.3556,0.138
22.3583,0.1473
22.3611,0.1665
22.3639,0.1492
22.3667,0.1182
22.3694,0.1285
22.3722,0.1288
22.375,0.1581
22.3778,0.1417
22.3806,0.1181
22.3833,0.1285
22.3861,0.1297
22.3889,0.1138
22.3917,0.1088
22.3944,0.1037
22.3972,0.1166
22.4,0.1009
22.4028,0.0896
22.4056,0.0879
22.4083,0.1007
22.4111,0.0959
22.4139,0.0632
22.4167,0.0827
22.4194,0.0633
22.4222,0.0526
22.425,0.0582
22.4278,0.0717
22.4306,0.0487
22.4333,0.029
22.4361,0.0245
22.4389,0.0239
22.4417,0.0355
22.4444,0.0073
22.4472,0.0206
22.45,0.0247
22.4528,0.0058
22.4556,0.0107
22.4583,-0.0135
22.4611,-0.0017
22.4639,-0.0003
22.4667,0.0116
22.4694,0.0106
22.4722,0.0129
22.475,0.0088
22.4778,-0.0042
22.4806,0.0096
22.4833,-0.0034
22.4861,0.0086
22.4889,-0.019
22.4917,0.0012
22.4944,-0.0062
22.4972,-0.0033
22.5,-0.0033
22.5028,-0.0041
22.5056,-0.002
22.5083,-0.0057
22.5111,0.0066
22.5139,-0.0018
22.5167,0.0082
22.5194,0.0312
22.5222,-0.0117
22.525,0.0154
22.5278,-0.0039
22.5306,0.0097
22.5333,-0.0236
22.5361,0.0007
22.5389,-0.0118
22.5417,0.001
22.5444,0.0
22.5472,-0.0098
22.55,-0.0174
22.5528,0.004
22.5556,-0.0029
22.5583,-0.0091
22.5611,0.0055
22.5639,0.0122
22.5667,-0.015
22.5694,-0.006
22.5722,-0.0096
22.575,0.0096
22.5778,0.0129
22.5806,-0.0035
22.5833,-0.0003
22.5861,-0.0035
22.5889,-0.0119
22.5917,-0.0008
22.5944,-0.0049
22.5972,0.0112
22.6,0.0161
22.6028,0.0115
22.6056,-0.0167
22.6083,-0.0009
22.6111,-0.0006
22.6139,-0.0014
22.6167,0.0161
22.6194,-0.0014
22.6222,-0.0184
22.625,-0.0058
22.6278,-0.0037
22.6306,-0.008
22.6333,-0.0021
22.6361,0.0088
22.6389,0.0042
22.6417,0.0009
22.6444,-0.0026
22.6472,0.0017
22.65,0.0016
22.6528,-0.012
22.6556,0.0019
22.6583,-0.0259
22.6611,-0.0054
22.6639,-0.0035
22.6667,0.0018
22.6694,-0.0155
22.6722,-0.0036
22.675,-0.01
22.6778,0.0191
22.6806,-0.0004
22.6833,0.0048
22.6861,-0.0003
22.6889,-0.0024
22.6917,-0.0129
22.6944,-0.0033
22.6972,-0.0052
22.7,-0.0078
22.7028,-0.0131
22.7056,0.0197
22.7083,0.0001
22.7111,0.0129
22.7139,0.0101
22.7167,0.0088
22.7194,0.0215
22.7222,0.0191
22.725,0.0163
22.7278,-0.0156
22.7306,0.0104
22.7333,-0.004
22.7361,-0.0095
22.7389,-0.0053
22.7417,0.0066
22.7444,0.0079
22.7472,0.0036
22.75,0.0087
22.7528,-0.0015
22.7556,0.0101
22.7583,-0.0006
22.7611,0.0066
22.7639,-0.0017
22.7667,-0.0019
22.7694,-0.0153
22.7722,-0.0009
22.775,-0.0068
22.7778,0.0027
22.7806,0.007
22.7833,-0.0057
22.7861,0.0051
22.7889,0.0142
22.7917,0.003
22.7944,-0.0
22.7972,0.0019
22.8,-0.01
22.8028,0.0114
22.8056,0.0004
22.8083,0.0013
22.8111,0.0017
22.8139,0.0027
22.8167,0.0035
22.8194,0.0104
22.8222,-0.0387
22.825,0.0006
22.8278,0.0013
22.8306,0.0033
22.8333,0.0138
22.8361,0.0031
22.8389,0.0
22.8417,0.0007
22.8444,0.0089
22.8472,0.0128
22.85,-0.0069
22.8528,0.0005
