time,ecg
0.0,-0.002
0.0028,0.0033
0.0056,0.0078
0.0083,-0.0039
0.0111,0.0093
0.0139,0.0021
0.0167,0.0149
0.0194,0.0077
0.0222,-0.0037
0.025,-0.026
0.0278,0.0085
0.0306,0.0049
0.0333,0.0014
0.0361,-0.0144
0.0389,-0.0029
0.0417,0.0024
0.0444,-0.0005
0.0472,-0.0055
0.05,0.0004
0.0528,-0.0096
0.0556,-0.0109
0.0583,-0.0082
0.0611,0.012
0.0639,0.0294
0.0667,-0.0073
0.0694,0.0043
0.0722,0.0098
0.075,-0.0013
0.0778,0.0001
0.0806,-0.0051
0.0833,0.0027
0.0861,-0.0007
0.0889,-0.0013
0.0917,0.0295
0.0944,0.014
0.0972,0.0178
0.1,0.0426
0.1028,0.0433
0.1056,0.0507
0.1083,0.0299
0.1111,0.0398
0.1139,0.0469
0.1167,0.0489
0.1194,0.0707
0.1222,0.0774
0.125,0.0706
0.1278,0.069
0.1306,0.0785
0.1333,0.0935
0.1361,0.0736
0.1389,0.0695
0.1417,0.0614
0.1444,0.0759
0.1472,0.0613
0.15,0.0803
0.1528,0.0889
0.1556,0.0758
0.1583,0.0755
0.1611,0.0811
0.1639,0.0832
0.1667,0.0793
0.1694,0.0811
0.1722,0.0752
0.175,0.0721
0.1778,0.0548
0.1806,0.0894
0.1833,0.0692
0.1861,0.0655
0.1889,0.0554
0.1917,0.0368
0.1944,0.0379
0.1972,0.0406
0.2,0.0229
0.2028,0.0469
0.2056,0.0252
0.2083,0.032
0.2111,0.0206
0.2139,0.018
0.2167,0.0102
0.2194,0.0019
0.2222,0.0096
0.225,0.0058
0.2278,-0.0036
0.2306,0.0003
0.2333,-0.0017
0.2361,0.0005
0.2389,0.0055
0.2417,0.0113
0.2444,-0.0115
0.2472,0.0038
0.25,-0.007
0.2528,-0.0127
0.2556,0.0065
0.2583,-0.0105
0.2611,-0.0101
0.2639,-0.0082
0.2667,-0.0059
0.2694,0.0219
0.2722,-0.01
0.275,-0.0043
0.2778,-0.0043
0.2806,-0.0032
0.2833,-0.0012
0.2861,0.0129
0.2889,-0.0153
0.2917,-0.0105
0.2944,-0.0328
0.2972,-0.0474
0.3,-0.0367
0.3028,-0.0257
0.3056,0.0035
0.3083,0.0138
0.3111,0.1498
0.3139,0.2636
0.3167,0.3512
0.3194,0.4506
0.3222,0.5351
0.325,0.6269
0.3278,0.6708
0.3306,0.7332
0.3333,0.7743
0.3361,0.8004
0.3389,0.8004
0.3417,0.7888
0.3444,0.7852
0.3472,0.714
0.35,0.6483
0.3528,0.594
0.3556,0.4983
0.3583,0.4398
0.3611,0.3203
0.3639,0.2133
0.3667,0.0942
0.3694,-0.0051
0.3722,-0.019
0.375,-0.0414
0.3778,-0.0767
0.3806,-0.0793
0.3833,-0.0913
0.3861,-0.0983
0.3889,-0.1164
0.3917,-0.1132
0.3944,-0.111
0.3972,-0.0934
0.4,-0.077
0.4028,-0.0775
0.4056,-0.041
0.4083,-0.0147
0.4111,-0.0111
0.4139,-0.0034
0.4167,0.006
0.4194,0.0101
0.4222,-0.0244
0.425,0.0096
0.4278,-0.0098
0.4306,0.0198
0.4333,0.0091
0.4361,-0.0147
0.4389,-0.0152
0.4417,0.015
0.4444,-0.0063
0.4472,0.0044
0.45,-0.0024
0.4528,0.001
0.4556,0.0004
0.4583,-0.0022
0.4611,0.0023
0.4639,0.0032
0.4667,-0.0015
0.4694,-0.0092
0.4722,0.0013
0.475,0.005
0.4778,-0.0171
0.4806,-0.0075
0.4833,-0.0064
0.4861,-0.0009
0.4889,-0.0015
0.4917,-0.0055
0.4944,0.0207
0.4972,-0.0053
0.5,-0.0144
0.5028,-0.0055
0.5056,-0.0157
0.5083,-0.0071
0.5111,0.008
0.5139,-0.027
0.5167,0.0265
0.5194,0.0097
0.5222,0.0312
0.525,0.0344
0.5278,0.0258
0.5306,0.0549
0.5333,0.0522
0.5361,0.0714
0.5389,0.0573
0.5417,0.0435
0.5444,0.0786
0.5472,0.0835
0.55,0.0997
0.5528,0.0593
0.5556,0.0903
0.5583,0.092
0.5611,0.0924
0.5639,0.1086
0.5667,0.1125
0.5694,0.1191
0.5722,0.1258
0.575,0.1267
0.5778,0.138
0.5806,0.1336
0.5833,0.1218
0.5861,0.1348
0.5889,0.1457
0.5917,0.1235
0.5944,0.1506
0.5972,0.1382
0.6,0.1549
0.6028,0.1292
0.6056,0.1538
0.6083,0.1412
0.6111,0.1649
0.6139,0.141
0.6167,0.1569
0.6194,0.1592
0.6222,0.1474
0.625,0.1439
0.6278,0.1433
0.6306,0.1535
0.6333,0.1522
0.6361,0.1525
0.6389,0.1533
0.6417,0.1346
0.6444,0.13
0.6472,0.1261
0.65,0.1328
0.6528,0.1295
0.6556,0.1166
0.6583,0.1159
0.6611,0.1038
0.6639,0.0963
0.6667,0.1086
0.6694,0.0929
0.6722,0.1004
0.675,0.0725
0.6778,0.0948
0.6806,0.101
0.6833,0.0713
0.6861,0.0639
0.6889,0.0652
0.6917,0.0641
0.6944,0.0511
0.6972,0.0579
0.7,0.0474
0.7028,0.0318
0.7056,0.0223
0.7083,0.0332
0.7111,0.0167
0.7139,0.0183
0.7167,0.0108
0.7194,0.0145
0.7222,-0.0084
0.725,0.0006
0.7278,0.0093
0.7306,-0.0214
0.7333,-0.0153
0.7361,0.0035
0.7389,0.0094
0.7417,0.0084
0.7444,0.0047
0.7472,-0.0256
0.75,0.0141
0.7528,-0.0042
0.7556,0.0062
0.7583,0.0174
0.7611,0.0035
0.7639,0.0013
0.7667,0.0109
0.7694,-0.002
0.7722,0.0063
0.775,0.0002
0.7778,0.0089
0.7806,0.007
0.7833,0.0071
0.7861,-0.0024
0.7889,-0.0027
0.7917,0.0244
0.7944,0.0004
0.7972,0.0171
0.8,-0.0047
0.8028,-0.0253
0.8056,-0.0054
0.8083,-0.0172
0.8111,0.011
0.8139,-0.0005
0.8167,0.0011
0.8194,0.0073
0.8222,0.0062
0.825,-0.0089
0.8278,0.0065
0.8306,-0.0059
0.8333,-0.0033
0.8361,0.0029
0.8389,0.0023
0.8417,0.0
0.8444,-0.0184
0.8472,0.0021
0.85,-0.0216
0.8528,0.0008
0.8556,-0.0044
0.8583,-0.0033
0.8611,-0.0057
0.8639,-0.0145
0.8667,-0.0059
0.8694,-0.0168
0.8722,-0.0003
0.875,-0.0091
0.8778,-0.007
0.8806,0.0147
0.8833,-0.0153
0.8861,0.0007
0.8889,0.0006
0.8917,0.0001
0.8944,0.008
0.8972,0.0089
0.9,0.0022
0.9028,0.0024
0.9056,-0.0061
0.9083,0.0043
0.9111,-0.0017
0.9139,0.0044
0.9167,-0.0121
0.9194,0.0139
0.9222,0.004
0.925,-0.0052
0.9278,0.0062
0.9306,0.0016
0.9333,-0.0075
0.9361,-0.0033
0.9389,0.015
0.9417,-0.0072
0.9444,-0.0096
0.9472,0.0115
0.95,-0.0147
0.9528,0.0034
0.9556,0.0132
0.9583,0.0155
0.9611,-0.02
0.9639,0.005
0.9667,0.0108
0.9694,-0.0011
0.9722,0.0022
0.975,0.0015
0.9778,0.0095
0.9806,0.003
0.9833,-0.0041
0.9861,0.0011
0.9889,-0.0123
0.9917,-0.0054
0.9944,0.0168
0.9972,0.0092
1.0,-0.0068
1.0028,0.0221
1.0056,-0.0048
1.0083,-0.0084
1.0111,-0.0132
1.0139,-0.0022
1.0167,-0.0131
1.0194,0.0017
1.0222,0.001
1.025,0.0159
1.0278,-0.0214
1.0306,-0.0083
1.0333,-0.0031
1.0361,0.0207
1.0389,0.0099
1.0417,-0.0093
1.0444,-0.0008
1.0472,-0.0032
1.05,0.01
1.0528,0.0026
1.0556,-0.0051
1.0583,-0.005
1.0611,-0.0134
1.0639,-0.0087
1.0667,-0.0094
1.0694,0.0046
1.0722,0.0039
1.075,-0.0124
1.0778,-0.0282
1.0806,0.0057
1.0833,-0.0053
1.0861,0.0079
1.0889,-0.0083
1.0917,0.0037
1.0944,0.0102
1.0972,-0.0022
1.1,-0.006
1.1028,0.0156
1.1056,-0.0078
1.1083,0.0107
1.1111,0.0085
1.1139,-0.0246
1.1167,-0.0054
1.1194,0.0103
1.1222,0.0232
1.125,0.0202
1.1278,0.0225
1.1306,0.0178
1.1333,0.0333
1.1361,0.0333
1.1389,0.0361
1.1417,0.0473
1.1444,0.0431
1.1472,0.0578
1.15,0.0613
1.1528,0.0547
1.1556,0.0573
1.1583,0.0738
1.1611,0.0764
1.1639,0.0857
1.1667,0.0818
1.1694,0.0822
1.1722,0.0846
1.175,0.0797
1.1778,0.0772
1.1806,0.0867
1.1833,0.0942
1.1861,0.0734
1.1889,0.1036
1.1917,0.0699
1.1944,0.0883
1.1972,0.0776
1.2,0.0699
1.2028,0.0787
1.2056,0.0809
1.2083,0.0808
1.2111,0.0852
1.2139,0.0659
1.2167,0.0814
1.2194,0.058
1.2222,0.0799
1.225,0.0584
1.2278,0.0464
1.2306,0.0452
1.2333,0.0532
1.2361,0.0521
1.2389,0.0356
1.2417,0.0252
1.2444,0.0259
1.2472,0.0352
1.25,0.0278
1.2528,0.0181
1.2556,0.0197
1.2583,0.0104
1.2611,0.0048
1.2639,0.0107
1.2667,0.0033
1.2694,-0.0066
1.2722,-0.0135
1.275,0.0094
1.2778,-0.0091
1.2806,-0.0151
1.2833,-0.0111
1.2861,0.0025
1.2889,-0.0042
1.2917,-0.0009
1.2944,0.0177
1.2972,-0.0094
1.3,0.0241
1.3028,0.0156
1.3056,-0.021
1.3083,0.0126
1.3111,-0.0053
1.3139,0.0067
1.3167,0.0022
1.3194,0.0091
1.3222,0.0035
1.325,0.0021
1.3278,-0.0023
1.3306,0.0054
1.3333,-0.0177
1.3361,-0.0299
1.3389,-0.0333
1.3417,-0.0502
1.3444,-0.0456
1.3472,-0.0323
1.35,-0.0297
1.3528,-0.0158
1.3556,0.0931
1.3583,0.1913
1.3611,0.2917
1.3639,0.4135
1.3667,0.4991
1.3694,0.5816
1.3722,0.639
1.375,0.7023
1.3778,0.743
1.3806,0.7609
1.3833,0.7835
1.3861,0.7986
1.3889,0.8053
1.3917,0.7481
1.3944,0.7285
1.3972,0.7013
1.4,0.616
1.4028,0.5448
1.4056,0.4415
1.4083,0.3629
1.4111,0.2811
1.4139,0.1578
1.4167,0.0694
1.4194,0.0045
1.4222,-0.0317
1.425,-0.0407
1.4278,-0.0858
1.4306,-0.0907
1.4333,-0.1073
1.4361,-0.1088
1.4389,-0.1131
1.4417,-0.1224
1.4444,-0.1073
1.4472,-0.114
1.45,-0.0889
1.4528,-0.0624
1.4556,-0.0547
1.4583,-0.0239
1.4611,-0.0134
1.4639,-0.0093
1.4667,-0.0014
1.4694,-0.013
1.4722,-0.0053
1.475,-0.0024
1.4778,-0.0105
1.4806,0.0141
1.4833,-0.0033
1.4861,-0.011
1.4889,0.0092
1.4917,0.0104
1.4944,-0.0064
1.4972,0.0052
1.5,0.0086
1.5028,0.0226
1.5056,0.0055
1.5083,0.002
1.5111,-0.0061
1.5139,-0.0019
1.5167,0.0103
1.5194,0.018
1.5222,-0.0008
1.525,0.0243
1.5278,-0.0037
1.5306,0.0173
1.5333,0.0089
1.5361,0.0044
1.5389,-0.0025
1.5417,0.0079
1.5444,-0.0058
1.5472,-0.0011
1.55,0.0079
1.5528,-0.0028
1.5556,-0.0087
1.5583,-0.0007
1.5611,0.0018
1.5639,-0.0098
1.5667,0.0035
1.5694,-0.0098
1.5722,0.0143
1.575,0.0121
1.5778,0.0186
1.5806,0.0295
1.5833,0.0104
1.5861,0.019
1.5889,0.0526
1.5917,0.0592
1.5944,0.0583
1.5972,0.0527
1.6,0.0483
1.6028,0.0754
1.6056,0.0668
1.6083,0.0631
1.6111,0.0882
1.6139,0.0762
1.6167,0.0978
1.6194,0.0919
1.6222,0.1133
1.625,0.1142
1.6278,0.0989
1.6306,0.1161
1.6333,0.1308
1.6361,0.1282
1.6389,0.1123
1.6417,0.1404
1.6444,0.1387
1.6472,0.1413
1.65,0.1226
1.6528,0.1554
1.6556,0.145
1.6583,0.1402
1.6611,0.1471
1.6639,0.1591
1.6667,0.1694
1.6694,0.137
1.6722,0.168
1.675,0.1488
1.6778,0.1404
1.6806,0.1551
1.6833,0.1564
1.6861,0.1542
1.6889,0.1736
1.6917,0.1493
1.6944,0.1385
1.6972,0.1443
1.7,0.1371
1.7028,0.1402
1.7056,0.1518
1.7083,0.1633
1.7111,0.139
1.7139,0.1278
1.7167,0.1283
1.7194,0.1213
1.7222,0.1142
1.725,0.1203
1.7278,0.1104
1.7306,0.1418
1.7333,0.0989
1.7361,0.0993
1.7389,0.1124
1.7417,0.0926
1.7444,0.0814
1.7472,0.0822
1.75,0.082
1.7528,0.0683
1.7556,0.0733
1.7583,0.061
1.7611,0.0443
1.7639,0.0472
1.7667,0.0455
1.7694,0.0452
1.7722,0.0475
1.775,0.026
1.7778,0.013
1.7806,0.0271
1.7833,0.0193
1.7861,0.002
1.7889,0.0045
1.7917,0.0011
1.7944,-0.0103
1.7972,-0.0133
1.8,-0.0085
1.8028,-0.0004
1.8056,-0.0044
1.8083,-0.0003
1.8111,-0.011
1.8139,-0.0001
1.8167,-0.0005
1.8194,-0.0145
1.8222,0.0006
1.825,-0.0159
1.8278,-0.017
1.8306,0.0054
1.8333,0.016
1.8361,0.0022
1.8389,-0.0227
1.8417,-0.0064
1.8444,-0.0042
1.8472,0.0119
1.85,-0.0054
1.8528,-0.0039
1.8556,0.0013
1.8583,0.0113
1.8611,0.0028
1.8639,0.0059
1.8667,-0.0153
1.8694,0.0181
1.8722,0.0085
1.875,-0.003
1.8778,-0.003
1.8806,0.0016
1.8833,0.0014
1.8861,-0.0122
1.8889,-0.0101
1.8917,-0.0031
1.8944,0.0025
1.8972,-0.0131
1.9,-0.0006
1.9028,-0.0099
1.9056,0.0156
1.9083,-0.0106
1.9111,-0.0127
1.9139,0.0075
1.9167,0.0095
1.9194,-0.0121
1.9222,-0.0155
1.925,0.0017
1.9278,-0.0004
1.9306,-0.0005
1.9333,-0.004
1.9361,0.0093
1.9389,-0.0077
1.9417,0.0014
1.9444,-0.0023
1.9472,0.0108
1.95,0.0045
1.9528,0.002
1.9556,0.0098
1.9583,-0.0032
1.9611,-0.0146
1.9639,-0.0009
1.9667,0.005
1.9694,0.0098
1.9722,0.009
1.975,0.0157
1.9778,0.0184
1.9806,-0.0083
1.9833,-0.0105
1.9861,0.0058
1.9889,0.0167
1.9917,0.0053
1.9944,-0.0126
1.9972,-0.0023
2.0,0.0067
2.0028,-0.0009
2.0056,-0.0123
2.0083,-0.0111
2.0111,-0.0182
2.0139,0.0016
2.0167,-0.0024
2.0194,0.013
2.0222,-0.0264
2.025,-0.0068
2.0278,0.0086
2.0306,-0.0031
2.0333,0.014
2.0361,0.0132
2.0389,-0.0059
2.0417,0.0059
2.0444,-0.0064
2.0472,-0.0099
2.05,-0.0123
2.0528,-0.0108
2.0556,0.0042
2.0583,0.0021
2.0611,0.0014
2.0639,-0.0083
2.0667,0.0207
2.0694,-0.0022
2.0722,-0.0025
2.075,-0.0158
2.0778,0.0112
2.0806,0.0066
2.0833,-0.0002
2.0861,-0.0109
2.0889,-0.0085
2.0917,0.0005
2.0944,-0.0195
2.0972,-0.0093
2.1,-0.0069
2.1028,0.0071
2.1056,0.0067
2.1083,0.0135
2.1111,-0.0042
2.1139,-0.0094
2.1167,-0.0313
2.1194,-0.0166
2.1222,0.0055
2.125,-0.0123
2.1278,0.0005
2.1306,-0.0022
2.1333,-0.0079
2.1361,-0.0093
2.1389,-0.0004
2.1417,-0.0055
2.1444,0.0025
2.1472,0.0056
2.15,-0.015
2.1528,-0.0017
2.1556,-0.0047
2.1583,-0.0005
2.1611,0.0154
2.1639,0.0046
2.1667,0.0046
2.1694,-0.0126
2.1722,-0.0162
2.175,0.0182
2.1778,0.0036
2.1806,0.0097
2.1833,-0.0015
2.1861,-0.0009
2.1889,-0.0015
2.1917,0.0023
2.1944,-0.0051
2.1972,0.007
2.2,-0.0076
2.2028,0.007
2.2056,0.0124
2.2083,0.0128
2.2111,0.014
2.2139,0.0204
2.2167,0.0285
2.2194,0.0207
2.2222,0.0176
2.225,0.0234
2.2278,0.0526
2.2306,0.0275
2.2333,0.0483
2.2361,0.0411
2.2389,0.0614
2.2417,0.0554
2.2444,0.081
2.2472,0.0576
2.25,0.0785
2.2528,0.0551
2.2556,0.0636
2.2583,0.056
2.2611,0.0695
2.2639,0.0672
2.2667,0.0981
2.2694,0.0725
2.2722,0.0882
2.275,0.0918
2.2778,0.0722
2.2806,0.0767
2.2833,0.0905
2.2861,0.0797
2.2889,0.087
2.2917,0.0913
2.2944,0.0927
2.2972,0.0888
2.3,0.0749
2.3028,0.0603
2.3056,0.0622
2.3083,0.0718
2.3111,0.0685
2.3139,0.0483
2.3167,0.0324
2.3194,0.0579
2.3222,0.0407
2.325,0.0449
2.3278,0.0218
2.3306,0.041
2.3333,0.0357
2.3361,0.0115
2.3389,0.0181
2.3417,0.0169
2.3444,-0.0008
2.3472,-0.0036
2.35,-0.0012
2.3528,0.0117
2.3556,-0.0038
2.3583,0.0146
2.3611,-0.007
2.3639,-0.0058
2.3667,0.0212
2.3694,0.0143
2.3722,0.0116
2.375,0.0121
2.3778,-0.0015
2.3806,0.0001
2.3833,-0.0061
2.3861,0.0054
2.3889,-0.0075
2.3917,0.0064
2.3944,-0.005
2.3972,-0.0123
2.4,0.0012
2.4028,-0.015
2.4056,-0.0009
2.4083,0.0274
2.4111,0.0252
2.4139,0.022
2.4167,-0.0159
2.4194,-0.0178
2.4222,-0.04
2.425,-0.0435
2.4278,-0.0317
2.4306,-0.0286
2.4333,-0.0252
2.4361,-0.0131
2.4389,0.0334
2.4417,0.1637
2.4444,0.2685
2.4472,0.365
2.45,0.4499
2.4528,0.5282
2.4556,0.5877
2.4583,0.6687
2.4611,0.7477
2.4639,0.7721
2.4667,0.7759
2.4694,0.7916
2.4722,0.806
2.475,0.7615
2.4778,0.7387
2.4806,0.7133
2.4833,0.6198
2.4861,0.5884
2.4889,0.4672
2.4917,0.377
2.4944,0.2798
2.4972,0.1709
2.5,0.0796
2.5028,0.004
2.5056,-0.0235
2.5083,-0.0747
2.5111,-0.0549
2.5139,-0.1089
2.5167,-0.1109
2.5194,-0.111
2.5222,-0.1286
2.525,-0.1135
2.5278,-0.1214
2.5306,-0.107
2.5333,-0.0663
2.5361,-0.0679
2.5389,-0.0578
2.5417,-0.0301
2.5444,0.0031
2.5472,-0.009
2.55,0.0073
2.5528,0.0061
2.5556,-0.005
2.5583,0.0047
2.5611,0.0269
2.5639,0.0008
2.5667,-0.0018
2.5694,-0.0007
2.5722,0.0179
2.575,-0.0308
2.5778,-0.0105
2.5806,-0.0152
2.5833,0.0032
2.5861,-0.0167
2.5889,0.0036
2.5917,0.0098
2.5944,-0.0022
2.5972,0.0045
2.6,0.0154
2.6028,-0.0041
2.6056,0.0157
2.6083,-0.0146
2.6111,-0.0065
2.6139,-0.003
2.6167,0.0076
2.6194,0.0109
2.6222,-0.0124
2.625,0.0033
2.6278,-0.0028
2.6306,-0.0054
2.6333,0.0065
2.6361,0.0038
2.6389,0.0056
2.6417,0.0026
2.6444,-0.0084
2.6472,0.0057
2.65,0.0053
2.6528,-0.0087
2.6556,-0.0021
2.6583,0.009
2.6611,0.0201
2.6639,0.0349
2.6667,0.0268
2.6694,0.021
2.6722,0.0591
2.675,0.0464
2.6778,0.0574
2.6806,0.057
2.6833,0.0628
2.6861,0.0418
2.6889,0.0835
2.6917,0.0941
2.6944,0.0674
2.6972,0.0846
2.7,0.1103
2.7028,0.076
2.7056,0.1153
2.7083,0.1179
2.7111,0.119
2.7139,0.1237
2.7167,0.1311
2.7194,0.1438
2.7222,0.1335
2.725,0.12
2.7278,0.1382
2.7306,0.1409
2.7333,0.1452
2.7361,0.1392
2.7389,0.149
2.7417,0.1275
2.7444,0.1441
2.7472,0.1631
2.75,0.1263
2.7528,0.1429
2.7556,0.1629
2.7583,0.1438
2.7611,0.1518
2.7639,0.1418
2.7667,0.1381
2.7694,0.1396
2.7722,0.1428
2.775,0.1308
2.7778,0.1405
2.7806,0.1434
2.7833,0.1345
2.7861,0.1197
2.7889,0.1438
2.7917,0.131
2.7944,0.147
2.7972,0.1174
2.8,0.1245
2.8028,0.0986
2.8056,0.1369
2.8083,0.1253
2.8111,0.1073
2.8139,0.1049
2.8167,0.0888
2.8194,0.1063
2.8222,0.0984
2.825,0.0964
2.8278,0.0647
2.8306,0.0651
2.8333,0.0651
2.8361,0.0658
2.8389,0.0601
2.8417,0.0613
2.8444,0.0625
2.8472,0.0366
2.85,0.0209
2.8528,0.0217
2.8556,0.0192
2.8583,0.0116
2.8611,0.0109
2.8639,0.0097
2.8667,0.0023
2.8694,0.0102
2.8722,-0.019
2.875,-0.0129
2.8778,0.0042
2.8806,0.0038
2.8833,-0.0099
2.8861,0.0069
2.8889,0.0113
2.8917,0.0132
2.8944,0.0045
2.8972,-0.0202
2.9,0.0043
2.9028,0.015
2.9056,-0.0029
2.9083,0.0019
2.9111,-0.014
2.9139,0.008
2.9167,0.0115
2.9194,0.0072
2.9222,0.0081
2.925,-0.0023
2.9278,0.0193
2.9306,-0.0083
2.9333,-0.0084
2.9361,0.0038
2.9389,0.0041
2.9417,0.0168
2.9444,0.0059
2.9472,-0.0087
2.95,-0.0012
2.9528,-0.0051
2.9556,0.0061
2.9583,0.0012
2.9611,-0.0126
2.9639,0.0072
2.9667,0.0031
2.9694,0.0041
2.9722,0.0032
2.975,-0.005
2.9778,0.0054
2.9806,-0.0093
2.9833,-0.0044
2.9861,0.0078
2.9889,-0.0089
2.9917,0.0001
2.9944,-0.0048
2.9972,0.0007
3.0,-0.0118
3.0028,-0.0104
3.0056,-0.0046
3.0083,-0.0164
3.0111,-0.0126
3.0139,0.0094
3.0167,-0.0071
3.0194,-0.0015
3.0222,0.0038
3.025,0.0113
3.0278,-0.0076
3.0306,0.0043
3.0333,0.0003
3.0361,0.0002
3.0389,-0.0136
3.0417,-0.0227
3.0444,-0.0053
3.0472,0.0093
3.05,0.0121
3.0528,-0.0016
3.0556,0.0175
3.0583,-0.0024
3.0611,0.008
3.0639,0.005
3.0667,0.0142
3.0694,-0.0077
3.0722,0.0174
3.075,0.0034
3.0778,-0.0092
3.0806,-0.0004
3.0833,0.0108
3.0861,0.0013
3.0889,-0.0312
3.0917,-0.0011
3.0944,0.001
3.0972,-0.0135
3.1,0.0054
3.1028,-0.0007
3.1056,0.0148
3.1083,0.0002
3.1111,-0.015
3.1139,-0.0062
3.1167,-0.0076
3.1194,-0.0013
3.1222,-0.0035
3.125,0.0073
3.1278,-0.0143
3.1306,-0.0136
3.1333,0.0012
3.1361,0.0127
3.1389,-0.0052
3.1417,-0.0141
3.1444,-0.0039
3.1472,0.0107
3.15,-0.0001
3.1528,-0.0093
3.1556,0.0046
3.1583,-0.0001
3.1611,0.0096
3.1639,0.0081
3.1667,-0.005
3.1694,-0.0042
3.1722,-0.0144
3.175,-0.0011
3.1778,0.0031
3.1806,0.0015
3.1833,-0.0002
3.1861,-0.0013
3.1889,0.0098
3.1917,-0.0006
3.1944,0.0084
3.1972,0.0064
3.2,-0.0167
3.2028,0.001
3.2056,0.0101
3.2083,0.0134
3.2111,-0.0038
3.2139,-0.0055
3.2167,-0.0004
3.2194,-0.0022
3.2222,-0.0047
3.225,0.0166
3.2278,-0.0122
3.2306,-0.0116
3.2333,-0.0075
3.2361,0.0136
3.2389,-0.0081
3.2417,0.0123
3.2444,0.0024
3.2472,-0.0021
3.25,-0.0048
3.2528,0.0099
3.2556,0.008
3.2583,0.0006
3.2611,0.0134
3.2639,0.0179
3.2667,0.0157
3.2694,-0.0033
3.2722,0.0146
3.275,-0.0042
3.2778,-0.0002
3.2806,0.0026
3.2833,-0.0061
3.2861,0.001
3.2889,0.0122
3.2917,0.0205
3.2944,0.0206
3.2972,0.029
3.3,0.0333
3.3028,0.0312
3.3056,0.0185
3.3083,0.0382
3.3111,0.0276
3.3139,0.0364
3.3167,0.0472
3.3194,0.0597
3.3222,0.047
3.325,0.0379
3.3278,0.0546
3.3306,0.054
3.3333,0.0612
3.3361,0.0715
3.3389,0.0772
3.3417,0.0677
3.3444,0.0553
3.3472,0.069
3.35,0.063
3.3528,0.0655
3.3556,0.084
3.3583,0.0657
3.3611,0.0664
3.3639,0.0768
3.3667,0.0857
3.3694,0.0727
3.3722,0.0767
3.375,0.0954
3.3778,0.0925
3.3806,0.0642
3.3833,0.085
3.3861,0.078
3.3889,0.0707
3.3917,0.0769
3.3944,0.0788
3.3972,0.0582
3.4,0.0538
3.4028,0.0617
3.4056,0.0396
3.4083,0.0631
3.4111,0.0666
3.4139,0.0454
3.4167,0.0325
3.4194,0.0347
3.4222,0.0607
3.425,0.0288
3.4278,0.0365
3.4306,0.0138
3.4333,0.0246
3.4361,0.0189
3.4389,0.0313
3.4417,0.0136
3.4444,0.0153
3.4472,0.0018
3.45,-0.0022
3.4528,-0.0064
3.4556,-0.0002
3.4583,0.0062
3.4611,0.0045
3.4639,0.0118
3.4667,0.0128
3.4694,-0.0219
3.4722,-0.0015
3.475,-0.0079
3.4778,0.0062
3.4806,0.0056
3.4833,-0.0173
3.4861,0.0118
3.4889,-0.0121
3.4917,-0.0091
3.4944,-0.001
3.4972,0.0106
3.5,0.0044
3.5028,-0.0001
3.5056,-0.0067
3.5083,0.0151
3.5111,-0.0074
3.5139,0.0186
3.5167,0.0096
3.5194,-0.0109
3.5222,-0.0054
3.525,-0.0177
3.5278,-0.0261
3.5306,-0.0435
3.5333,-0.038
3.5361,-0.0363
3.5389,-0.0278
3.5417,-0.0335
3.5444,0.0024
3.5472,0.0837
3.55,0.1695
3.5528,0.2548
3.5556,0.3509
3.5583,0.4452
3.5611,0.5154
3.5639,0.5976
3.5667,0.6556
3.5694,0.7018
3.5722,0.7292
3.575,0.7768
3.5778,0.8132
3.5806,0.8082
3.5833,0.7901
3.5861,0.7802
3.5889,0.735
3.5917,0.7091
3.5944,0.6534
3.5972,0.6052
3.6,0.547
3.6028,0.4508
3.6056,0.3671
3.6083,0.2844
3.6111,0.19
3.6139,0.0813
3.6167,-0.005
3.6194,-0.0083
3.6222,-0.022
3.625,-0.0789
3.6278,-0.0708
3.6306,-0.0979
3.6333,-0.116
3.6361,-0.1191
3.6389,-0.1212
3.6417,-0.1301
3.6444,-0.1096
3.6472,-0.105
3.65,-0.0797
3.6528,-0.0887
3.6556,-0.054
3.6583,-0.0424
3.6611,-0.0113
3.6639,-0.0004
3.6667,-0.0046
3.6694,-0.0017
3.6722,-0.0012
3.675,-0.0024
3.6778,-0.0089
3.6806,0.0231
3.6833,-0.0082
3.6861,0.0071
3.6889,-0.0068
3.6917,-0.0169
3.6944,-0.0087
3.6972,0.0206
3.7,-0.0011
3.7028,0.008
3.7056,0.0123
3.7083,-0.0091
3.7111,-0.0159
3.7139,0.0078
3.7167,0.0141
3.7194,-0.0019
3.7222,-0.0147
3.725,-0.0055
3.7278,0.0077
3.7306,-0.0194
3.7333,-0.0033
3.7361,-0.0107
3.7389,-0.0109
3.7417,-0.0078
3.7444,-0.0131
3.7472,-0.0083
3.75,-0.0061
3.7528,0.0074
3.7556,-0.0117
3.7583,-0.009
3.7611,0.0098
3.7639,-0.0041
3.7667,-0.0072
3.7694,-0.0096
3.7722,-0.001
3.775,-0.0024
3.7778,-0.0014
3.7806,0.0066
3.7833,0.0098
3.7861,0.016
3.7889,0.0259
3.7917,0.0121
3.7944,0.0219
3.7972,0.0368
3.8,0.0348
3.8028,0.0407
3.8056,0.0416
3.8083,0.0499
3.8111,0.0662
3.8139,0.0581
3.8167,0.0642
3.8194,0.0727
3.8222,0.0676
3.825,0.0706
3.8278,0.0679
3.8306,0.1022
3.8333,0.0885
3.8361,0.1006
3.8389,0.1017
3.8417,0.1185
3.8444,0.1144
3.8472,0.1143
3.85,0.1136
3.8528,0.1139
3.8556,0.1407
3.8583,0.1067
3.8611,0.1136
3.8639,0.1398
3.8667,0.1389
3.8694,0.112
3.8722,0.1388
3.875,0.1603
3.8778,0.1488
3.8806,0.1475
3.8833,0.1403
3.8861,0.1456
3.8889,0.1513
3.8917,0.1668
3.8944,0.162
3.8972,0.1467
3.9,0.1431
3.9028,0.1405
3.9056,0.1442
3.9083,0.1679
3.9111,0.1489
3.9139,0.154
3.9167,0.1217
3.9194,0.1489
3.9222,0.1384
3.925,0.147
3.9278,0.1364
3.9306,0.1443
3.9333,0.1356
3.9361,0.1359
3.9389,0.1336
3.9417,0.1385
3.9444,0.1109
3.9472,0.1321
3.95,0.1083
3.9528,0.1263
3.9556,0.1024
3.9583,0.1237
3.9611,0.1051
3.9639,0.1202
3.9667,0.1102
3.9694,0.0867
3.9722,0.1002
3.975,0.0633
3.9778,0.0783
3.9806,0.0686
3.9833,0.0788
3.9861,0.0744
3.9889,0.0701
3.9917,0.062
3.9944,0.0449
3.9972,0.0457
4.0,0.0364
4.0028,0.0346
4.0056,0.0393
4.0083,0.0098
4.0111,-0.0001
4.0139,0.0192
4.0167,0.0017
4.0194,0.0036
4.0222,-0.0013
4.025,-0.0158
4.0278,0.0124
4.0306,-0.0159
4.0333,0.0103
4.0361,0.0073
4.0389,0.0185
4.0417,-0.0293
4.0444,0.0027
4.0472,-0.0044
4.05,-0.0022
4.0528,0.0
4.0556,0.0009
4.0583,-0.0009
4.0611,0.0104
4.0639,-0.0007
4.0667,0.0164
4.0694,0.0015
4.0722,-0.018
4.075,-0.021
4.0778,0.0008
4.0806,0.0037
4.0833,0.0
4.0861,-0.0091
4.0889,0.0032
4.0917,0.0141
4.0944,0.0006
4.0972,-0.0094
4.1,-0.0014
4.1028,0.0072
4.1056,0.0022
4.1083,-0.0179
4.1111,0.0078
4.1139,-0.0036
4.1167,-0.0028
4.1194,0.0099
4.1222,0.0041
4.125,0.0095
4.1278,0.0015
4.1306,-0.0058
4.1333,-0.0008
4.1361,0.0004
4.1389,-0.0063
4.1417,-0.0173
4.1444,0.001
4.1472,-0.0122
4.15,0.0029
4.1528,-0.0083
4.1556,0.0065
4.1583,-0.0006
4.1611,-0.0074
4.1639,-0.0133
4.1667,-0.0072
4.1694,0.0098
4.1722,-0.018
4.175,-0.0183
4.1778,0.0103
4.1806,0.0073
4.1833,-0.0124
4.1861,0.0068
4.1889,0.0125
4.1917,-0.012
4.1944,-0.0095
4.1972,0.0063
4.2,0.0052
4.2028,0.0175
4.2056,-0.0146
4.2083,-0.0167
4.2111,-0.0195
4.2139,0.0068
4.2167,0.0025
4.2194,-0.0099
4.2222,0.0028
4.225,-0.0082
4.2278,-0.009
4.2306,0.015
4.2333,-0.0019
4.2361,0.0081
4.2389,-0.0029
4.2417,-0.0046
4.2444,-0.0011
4.2472,-0.0079
4.25,-0.0036
4.2528,0.007
4.2556,0.0113
4.2583,0.0143
4.2611,-0.0038
4.2639,-0.0125
4.2667,-0.0009
4.2694,0.009
4.2722,-0.0173
4.275,-0.0019
4.2778,-0.002
4.2806,-0.0033
4.2833,0.0098
4.2861,0.0037
4.2889,-0.0028
4.2917,-0.015
4.2944,-0.0023
4.2972,0.0054
4.3,0.0097
4.3028,-0.0118
4.3056,0.0043
4.3083,-0.0254
4.3111,-0.0055
4.3139,0.0214
4.3167,0.0067
4.3194,0.0059
4.3222,0.0101
4.325,0.0057
4.3278,-0.0042
4.3306,0.0123
4.3333,0.0097
4.3361,0.0092
4.3389,-0.0061
4.3417,0.0049
4.3444,0.0034
4.3472,0.0067
4.35,-0.0028
4.3528,0.0035
4.3556,-0.0047
4.3583,0.0074
4.3611,-0.001
4.3639,0.0201
4.3667,-0.0158
4.3694,-0.0054
4.3722,0.0023
4.375,0.0002
4.3778,0.0051
4.3806,-0.0117
4.3833,0.0031
4.3861,0.011
4.3889,-0.0066
4.3917,-0.0017
4.3944,-0.0048
4.3972,0.0157
4.4,-0.0153
4.4028,0.0005
4.4056,-0.0027
4.4083,0.0131
4.4111,-0.0037
4.4139,0.0025
4.4167,0.0026
4.4194,0.0126
4.4222,0.0018
4.425,0.0057
4.4278,-0.004
4.4306,0.0291
4.4333,0.0048
4.4361,-0.0181
4.4389,-0.006
4.4417,-0.0065
4.4444,-0.0015
4.4472,-0.0168
4.45,-0.0084
4.4528,0.0012
4.4556,0.011
4.4583,-0.008
4.4611,0.0042
4.4639,0.0062
4.4667,0.0202
4.4694,0.0096
4.4722,0.0178
4.475,-0.0019
4.4778,0.0031
4.4806,0.0174
4.4833,0.0168
4.4861,0.0106
4.4889,0.0337
4.4917,0.0371
4.4944,0.0371
4.4972,0.0168
4.5,0.0615
4.5028,0.029
4.5056,0.0268
4.5083,0.037
4.5111,0.046
4.5139,0.0562
4.5167,0.0636
4.5194,0.0441
4.5222,0.0612
4.525,0.0603
4.5278,0.0755
4.5306,0.068
4.5333,0.047
4.5361,0.071
4.5389,0.0786
4.5417,0.0542
4.5444,0.0687
4.5472,0.0831
4.55,0.0767
4.5528,0.0741
4.5556,0.0801
4.5583,0.0982
4.5611,0.0922
4.5639,0.0717
4.5667,0.0823
4.5694,0.0621
4.5722,0.0694
4.575,0.0643
4.5778,0.0614
4.5806,0.0678
4.5833,0.0551
4.5861,0.0588
4.5889,0.0901
4.5917,0.0639
4.5944,0.0613
4.5972,0.0516
4.6,0.0682
4.6028,0.0668
4.6056,0.0474
4.6083,0.0502
4.6111,0.0361
4.6139,0.0461
4.6167,0.0515
4.6194,0.0341
4.6222,0.0304
4.625,0.0109
4.6278,0.0199
4.6306,0.0222
4.6333,-0.0001
4.6361,0.0141
4.6389,-0.0012
4.6417,-0.0088
4.6444,0.0027
4.6472,0.0039
4.65,-0.0063
4.6528,-0.0107
4.6556,0.0047
4.6583,-0.0074
4.6611,0.0188
4.6639,-0.0014
4.6667,-0.0163
4.6694,0.0142
4.6722,0.0081
4.675,-0.0078
4.6778,0.0177
4.6806,-0.0179
4.6833,0.0071
4.6861,-0.0022
4.6889,-0.0003
4.6917,-0.0024
4.6944,-0.0069
4.6972,-0.0048
4.7,0.0049
4.7028,-0.0141
4.7056,0.0069
4.7083,-0.0116
4.7111,0.0014
4.7139,0.0032
4.7167,0.0068
4.7194,-0.0214
4.7222,-0.0157
4.725,-0.0266
4.7278,-0.0464
4.7306,-0.0429
4.7333,-0.0398
4.7361,-0.005
4.7389,0.0052
4.7417,0.0758
4.7444,0.1689
4.7472,0.2596
4.75,0.3548
4.7528,0.4283
4.7556,0.5006
4.7583,0.588
4.7611,0.6418
4.7639,0.6949
4.7667,0.7301
4.7694,0.783
4.7722,0.8024
4.775,0.8079
4.7778,0.8078
4.7806,0.7976
4.7833,0.7629
4.7861,0.7245
4.7889,0.6832
4.7917,0.628
4.7944,0.534
4.7972,0.4802
4.8,0.4135
4.8028,0.3196
4.8056,0.2145
4.8083,0.1176
4.8111,0.0213
4.8139,-0.011
4.8167,-0.0387
4.8194,-0.0562
4.8222,-0.0594
4.825,-0.088
4.8278,-0.1074
4.8306,-0.1133
4.8333,-0.1172
4.8361,-0.1244
4.8389,-0.1049
4.8417,-0.1168
4.8444,-0.11
4.8472,-0.0882
4.85,-0.0704
4.8528,-0.0672
4.8556,-0.0502
4.8583,-0.009
4.8611,0.0007
4.8639,-0.0067
4.8667,-0.0096
4.8694,0.0007
4.8722,-0.0077
4.875,-0.0071
4.8778,-0.0087
4.8806,0.002
4.8833,-0.003
4.8861,-0.0123
4.8889,-0.0016
4.8917,-0.0079
4.8944,0.0039
4.8972,0.0001
4.9,0.0017
4.9028,-0.011
4.9056,0.0163
4.9083,0.0056
4.9111,-0.0126
4.9139,-0.0152
4.9167,-0.0016
4.9194,-0.0055
4.9222,0.0048
4.925,-0.0112
4.9278,-0.0118
4.9306,0.013
4.9333,-0.0136
4.9361,-0.0152
4.9389,-0.0035
4.9417,-0.0179
4.9444,0.0031
4.9472,-0.003
4.95,0.0015
4.9528,-0.0138
4.9556,-0.0129
4.9583,-0.0019
4.9611,-0.01
4.9639,0.0009
4.9667,0.0006
4.9694,0.0063
4.9722,0.0011
4.975,-0.0198
4.9778,-0.0135
4.9806,-0.0125
4.9833,0.0057
4.9861,0.012
4.9889,0.0276
4.9917,0.0303
4.9944,0.0256
4.9972,0.0427
5.0,0.0211
5.0028,0.0337
5.0056,0.0496
5.0083,0.054
5.0111,0.0777
5.0139,0.0684
5.0167,0.0763
5.0194,0.0839
5.0222,0.0857
5.025,0.0711
5.0278,0.0782
5.0306,0.1025
5.0333,0.0807
5.0361,0.0898
5.0389,0.0925
5.0417,0.0912
5.0444,0.1093
5.0472,0.119
5.05,0.1161
5.0528,0.1174
5.0556,0.123
5.0583,0.1299
5.0611,0.1295
5.0639,0.1255
5.0667,0.1088
5.0694,0.152
5.0722,0.1423
5.075,0.1513
5.0778,0.132
5.0806,0.1406
5.0833,0.149
5.0861,0.1475
5.0889,0.1493
5.0917,0.1553
5.0944,0.1321
5.0972,0.1335
5.1,0.1582
5.1028,0.1512
5.1056,0.1424
5.1083,0.1475
5.1111,0.1407
5.1139,0.1412
5.1167,0.1409
5.1194,0.1629
5.1222,0.1546
5.125,0.1442
5.1278,0.1488
5.1306,0.1419
5.1333,0.1553
5.1361,0.1183
5.1389,0.1308
5.1417,0.1447
5.1444,0.1216
5.1472,0.1123
5.15,0.1269
5.1528,0.1041
5.1556,0.1119
5.1583,0.1158
5.1611,0.0882
5.1639,0.1067
5.1667,0.0966
5.1694,0.096
5.1722,0.0919
5.175,0.0899
5.1778,0.0868
5.1806,0.0738
5.1833,0.0612
5.1861,0.0569
5.1889,0.0708
5.1917,0.065
5.1944,0.0545
5.1972,0.0514
5.2,0.0456
5.2028,0.0376
5.2056,0.0391
5.2083,0.0366
5.2111,0.0248
5.2139,0.0365
5.2167,0.0146
5.2194,-0.006
5.2222,0.0085
5.225,-0.0028
5.2278,0.0001
5.2306,-0.0024
5.2333,0.011
5.2361,0.0015
5.2389,-0.0191
5.2417,0.0019
5.2444,-0.009
5.2472,0.0039
5.25,-0.001
5.2528,0.0062
5.2556,-0.0001
5.2583,-0.0087
5.2611,0.0036
5.2639,0.0
5.2667,-0.0118
5.2694,0.0185
5.2722,0.0022
5.275,-0.0105
5.2778,0.0062
5.2806,0.0042
5.2833,0.0016
5.2861,-0.0127
5.2889,-0.0073
5.2917,-0.0011
5.2944,-0.0081
5.2972,0.0131
5.3,0.0039
5.3028,0.0072
5.3056,0.0186
5.3083,0.0072
5.3111,0.0023
5.3139,0.013
5.3167,0.0209
5.3194,0.0153
5.3222,0.0143
5.325,0.0105
5.3278,-0.0049
5.3306,0.008
5.3333,-0.0063
5.3361,0.0079
5.3389,0.0142
5.3417,0.0008
5.3444,-0.0096
5.3472,0.029
5.35,0.0098
5.3528,0.01
5.3556,0.0112
5.3583,0.006
5.3611,0.0016
5.3639,-0.0018
5.3667,0.0207
5.3694,0.0162
5.3722,0.0121
5.375,0.0041
5.3778,0.0199
5.3806,0.0003
5.3833,-0.0
5.3861,-0.0167
5.3889,-0.0011
5.3917,0.01
5.3944,-0.0094
5.3972,-0.003
5.4,0.0035
5.4028,-0.0056
5.4056,0.0152
5.4083,-0.0228
5.4111,-0.0026
5.4139,0.0047
5.4167,0.0098
5.4194,0.0132
5.4222,0.0044
5.425,-0.0102
5.4278,-0.001
5.4306,0.0105
5.4333,0.0092
5.4361,0.0197
5.4389,0.0146
5.4417,0.0029
5.4444,0.0053
5.4472,0.0086
5.45,0.0018
5.4528,-0.0049
5.4556,0.0025
5.4583,0.0159
5.4611,0.0108
5.4639,-0.0082
5.4667,-0.0058
5.4694,0.0106
5.4722,0.0004
5.475,-0.0076
5.4778,-0.002
5.4806,-0.0008
5.4833,-0.0048
5.4861,-0.0083
5.4889,-0.0214
5.4917,-0.0052
5.4944,-0.004
5.4972,0.0021
5.5,0.014
5.5028,-0.0017
5.5056,0.0097
5.5083,0.0162
5.5111,0.0013
5.5139,-0.0224
5.5167,-0.009
5.5194,-0.0059
5.5222,0.0071
5.525,0.0006
5.5278,-0.0071
5.5306,-0.0181
5.5333,0.0014
5.5361,0.0055
5.5389,-0.0087
5.5417,-0.004
5.5444,0.0015
5.5472,0.0113
5.55,0.0096
5.5528,0.0252
5.5556,0.0082
5.5583,-0.0187
5.5611,-0.006
5.5639,0.0
5.5667,0.0005
5.5694,-0.0059
5.5722,-0.0092
5.575,-0.0061
5.5778,0.006
5.5806,0.0089
5.5833,-0.0066
5.5861,-0.0145
5.5889,-0.0117
5.5917,0.002
5.5944,-0.0088
5.5972,-0.0024
5.6,-0.0025
5.6028,0.0157
5.6056,-0.0164
5.6083,0.0122
5.6111,0.0097
5.6139,-0.0008
5.6167,-0.0034
5.6194,-0.0026
5.6222,-0.0111
5.625,-0.0104
5.6278,0.0014
5.6306,-0.0062
5.6333,-0.0077
5.6361,-0.0149
5.6389,-0.0095
5.6417,0.0061
5.6444,0.0073
5.6472,-0.0065
5.65,-0.0112
5.6528,-0.0096
5.6556,-0.0068
5.6583,0.0038
5.6611,-0.0134
5.6639,0.0236
5.6667,-0.0095
5.6694,-0.0013
5.6722,-0.0027
5.675,0.0026
5.6778,-0.0016
5.6806,-0.0044
5.6833,0.0036
5.6861,0.0046
5.6889,0.012
5.6917,0.0044
5.6944,0.045
5.6972,0.0307
5.7,0.0259
5.7028,0.0346
5.7056,0.0396
5.7083,0.0519
5.7111,0.0421
5.7139,0.043
5.7167,0.0439
5.7194,0.0366
5.7222,0.0606
5.725,0.0674
5.7278,0.0596
5.7306,0.0791
5.7333,0.0661
5.7361,0.0775
5.7389,0.0613
5.7417,0.0909
5.7444,0.071
5.7472,0.0771
5.75,0.0864
5.7528,0.0724
5.7556,0.0984
5.7583,0.069
5.7611,0.0659
5.7639,0.0878
5.7667,0.071
5.7694,0.0719
5.7722,0.0876
5.775,0.0778
5.7778,0.0699
5.7806,0.0847
5.7833,0.0682
5.7861,0.072
5.7889,0.068
5.7917,0.0697
5.7944,0.0661
5.7972,0.0633
5.8,0.0505
5.8028,0.0536
5.8056,0.0463
5.8083,0.0505
5.8111,0.0579
5.8139,0.0214
5.8167,0.033
5.8194,0.0421
5.8222,0.0427
5.825,0.0295
5.8278,0.0229
5.8306,-0.0049
5.8333,0.0136
5.8361,0.0216
5.8389,-0.0028
5.8417,-0.0106
5.8444,-0.0113
5.8472,-0.0127
5.85,-0.0037
5.8528,0.0097
5.8556,0.0018
5.8583,-0.0115
5.8611,0.002
5.8639,0.0052
5.8667,0.0169
5.8694,0.0056
5.8722,-0.0226
5.875,0.0083
5.8778,0.0038
5.8806,-0.0003
5.8833,0.0134
5.8861,-0.003
5.8889,0.0129
5.8917,0.0036
5.8944,-0.0174
5.8972,0.0063
5.9,-0.0135
5.9028,-0.0053
5.9056,0.0217
5.9083,0.0038
5.9111,0.0034
5.9139,-0.013
5.9167,-0.0292
5.9194,-0.0341
5.9222,-0.0323
5.925,-0.0562
5.9278,-0.0277
5.9306,-0.0065
5.9333,-0.0141
5.9361,0.0217
5.9389,0.0951
5.9417,0.2065
5.9444,0.3061
5.9472,0.4109
5.95,0.4736
5.9528,0.5531
5.9556,0.6284
5.9583,0.6792
5.9611,0.7154
5.9639,0.7758
5.9667,0.7829
5.9694,0.7804
5.9722,0.7946
5.975,0.7917
5.9778,0.7552
5.9806,0.7226
5.9833,0.6769
5.9861,0.6213
5.9889,0.534
5.9917,0.4685
5.9944,0.3762
5.9972,0.3003
6.0,0.2042
6.0028,0.1131
6.0056,0.0153
6.0083,-0.034
6.0111,-0.0369
6.0139,-0.0704
6.0167,-0.0799
6.0194,-0.0911
6.0222,-0.1181
6.025,-0.1265
6.0278,-0.1161
6.0306,-0.1235
6.0333,-0.1269
6.0361,-0.084
6.0389,-0.107
6.0417,-0.0956
6.0444,-0.0513
6.0472,-0.0349
6.05,-0.0043
6.0528,-0.0087
6.0556,-0.0064
6.0583,-0.0023
6.0611,-0.0055
6.0639,0.0078
6.0667,-0.0093
6.0694,0.0052
6.0722,0.0021
6.075,-0.0218
6.0778,0.0053
6.0806,0.0013
6.0833,-0.0017
6.0861,-0.0166
6.0889,0.0002
6.0917,0.0002
6.0944,0.0043
6.0972,0.0051
6.1,-0.0006
6.1028,-0.0153
6.1056,0.0038
6.1083,-0.0026
6.1111,-0.0035
6.1139,-0.0118
6.1167,-0.0003
6.1194,0.0014
6.1222,0.0063
6.125,-0.0077
6.1278,-0.0016
6.1306,-0.0153
6.1333,0.0041
6.1361,0.0052
6.1389,-0.0068
6.1417,0.0036
6.1444,-0.0047
6.1472,0.005
6.15,0.0083
6.1528,0.0113
6.1556,0.0164
6.1583,-0.0007
6.1611,0.0057
6.1639,0.0001
6.1667,-0.001
6.1694,-0.0081
6.1722,0.0134
6.175,0.0108
6.1778,0.0233
6.1806,0.0021
6.1833,0.013
6.1861,0.0392
6.1889,0.0364
6.1917,0.0366
6.1944,0.0462
6.1972,0.044
6.2,0.0412
6.2028,0.0481
6.2056,0.0495
6.2083,0.0806
6.2111,0.081
6.2139,0.0711
6.2167,0.0807
6.2194,0.0984
6.2222,0.0965
6.225,0.0859
6.2278,0.1106
6.2306,0.1156
6.2333,0.1202
6.2361,0.1419
6.2389,0.1143
6.2417,0.1203
6.2444,0.1145
6.2472,0.1358
6.25,0.1342
6.2528,0.1289
6.2556,0.136
6.2583,0.1524
6.2611,0.1336
6.2639,0.1396
6.2667,0.1484
6.2694,0.1425
6.2722,0.1499
6.275,0.1498
6.2778,0.1504
6.2806,0.1502
6.2833,0.132
6.2861,0.1325
6.2889,0.1511
6.2917,0.1578
6.2944,0.1509
6.2972,0.1609
6.3,0.1567
6.3028,0.1361
6.3056,0.1496
6.3083,0.1488
6.3111,0.1501
6.3139,0.1425
6.3167,0.1208
6.3194,0.1353
6.3222,0.1468
6.325,0.1347
6.3278,0.1367
6.3306,0.1332
6.3333,0.1167
6.3361,0.1214
6.3389,0.1181
6.3417,0.1191
6.3444,0.1018
6.3472,0.1069
6.35,0.1055
6.3528,0.1072
6.3556,0.096
6.3583,0.0863
6.3611,0.0779
6.3639,0.0785
6.3667,0.0649
6.3694,0.0822
6.3722,0.0551
6.375,0.0679
6.3778,0.062
6.3806,0.0666
6.3833,0.0497
6.3861,0.0503
6.3889,0.0319
6.3917,0.028
6.3944,0.0253
6.3972,0.0208
6.4,0.014
6.4028,0.004
6.4056,0.0052
6.4083,0.0087
6.4111,0.0161
6.4139,0.0133
6.4167,0.007
6.4194,0.0063
6.4222,-0.0048
6.425,0.0028
6.4278,0.0072
6.4306,0.0094
6.4333,0.0015
6.4361,-0.0139
6.4389,-0.0003
6.4417,0.007
6.4444,-0.0024
6.4472,-0.0029
6.45,-0.0005
6.4528,0.0088
6.4556,-0.0009
6.4583,-0.0074
6.4611,0.0085
6.4639,-0.0033
6.4667,0.011
6.4694,0.0058
6.4722,-0.0091
6.475,0.0033
6.4778,0.008
6.4806,0.0064
6.4833,0.0015
6.4861,-0.0096
6.4889,0.0143
6.4917,-0.0002
6.4944,-0.0023
6.4972,-0.0003
6.5,-0.007
6.5028,0.006
6.5056,-0.009
6.5083,-0.0123
6.5111,0.0217
6.5139,0.0162
6.5167,0.0049
6.5194,-0.011
6.5222,-0.0035
6.525,0.014
6.5278,0.0064
6.5306,-0.0163
6.5333,-0.0136
6.5361,-0.0086
6.5389,0.0155
6.5417,0.0026
6.5444,-0.0297
6.5472,-0.0173
6.55,-0.0115
6.5528,-0.0349
6.5556,-0.0026
6.5583,-0.0091
6.5611,0.0186
6.5639,0.0282
6.5667,-0.0018
6.5694,-0.0143
6.5722,0.0049
6.575,0.0073
6.5778,-0.0125
6.5806,0.0039
6.5833,-0.0021
6.5861,0.0005
6.5889,0.0005
6.5917,-0.015
6.5944,0.0114
6.5972,-0.0103
6.6,-0.012
6.6028,0.013
6.6056,0.0054
6.6083,-0.0046
6.6111,0.015
6.6139,-0.0081
6.6167,0.0061
6.6194,0.0134
6.6222,-0.0109
6.625,0.0104
6.6278,0.0175
6.6306,-0.0018
6.6333,-0.0046
6.6361,0.0282
6.6389,0.0054
6.6417,0.0106
6.6444,-0.0005
6.6472,-0.0102
6.65,-0.0068
6.6528,-0.0002
6.6556,-0.0067
6.6583,0.0164
6.6611,-0.0136
6.6639,0.0095
6.6667,-0.005
6.6694,0.003
6.6722,0.0011
6.675,-0.0073
6.6778,-0.0112
6.6806,0.008
6.6833,-0.0103
6.6861,-0.0248
6.6889,0.0036
6.6917,0.0235
6.6944,-0.0035
6.6972,0.0174
6.7,0.0078
6.7028,0.0066
6.7056,0.0056
6.7083,-0.009
6.7111,-0.0112
6.7139,0.0058
6.7167,0.0129
6.7194,-0.0128
6.7222,-0.0052
6.725,-0.0067
6.7278,-0.0016
6.7306,0.0077
6.7333,-0.0002
6.7361,0.0238
6.7389,-0.0112
6.7417,0.0003
6.7444,-0.014
6.7472,0.0036
6.75,-0.0054
6.7528,-0.0153
6.7556,0.0196
6.7583,0.0188
6.7611,-0.0087
6.7639,-0.0041
6.7667,-0.0063
6.7694,0.0089
6.7722,0.0125
6.775,-0.0085
6.7778,-0.025
6.7806,0.0125
6.7833,-0.0129
6.7861,0.0039
6.7889,-0.0149
6.7917,-0.0069
6.7944,0.0046
6.7972,-0.0048
6.8,0.0045
6.8028,-0.0118
6.8056,-0.0028
6.8083,0.0132
6.8111,0.0064
6.8139,0.0142
6.8167,-0.0001
6.8194,0.0218
6.8222,-0.0096
6.825,-0.0073
6.8278,-0.0003
6.8306,0.0051
6.8333,0.0037
6.8361,0.0153
6.8389,-0.0027
6.8417,0.0001
6.8444,-0.0123
6.8472,-0.0096
6.85,0.0156
6.8528,-0.0002
6.8556,-0.0043
6.8583,0.0
6.8611,0.004
6.8639,0.0229
6.8667,0.0098
6.8694,0.0139
6.8722,0.0178
6.875,0.0224
6.8778,0.021
6.8806,0.0049
6.8833,0.0508
6.8861,0.0542
6.8889,0.0405
6.8917,0.0469
6.8944,0.0608
6.8972,0.041
6.9,0.0618
6.9028,0.0609
6.9056,0.0754
6.9083,0.0734
6.9111,0.0731
6.9139,0.0605
6.9167,0.0835
6.9194,0.0831
6.9222,0.0557
6.925,0.0802
6.9278,0.0923
6.9306,0.0746
6.9333,0.0624
6.9361,0.0853
6.9389,0.0879
6.9417,0.0732
6.9444,0.0852
6.9472,0.0896
6.95,0.0748
6.9528,0.0792
6.9556,0.0881
6.9583,0.0699
6.9611,0.0685
6.9639,0.0768
6.9667,0.0729
6.9694,0.0637
6.9722,0.0797
6.975,0.0687
6.9778,0.0652
6.9806,0.0519
6.9833,0.048
6.9861,0.0672
6.9889,0.0509
6.9917,0.0566
6.9944,0.0516
6.9972,0.0514
7.0,0.0215
7.0028,0.0375
7.0056,0.0247
7.0083,0.0306
7.0111,0.0229
7.0139,0.0102
7.0167,0.016
7.0194,0.0234
7.0222,0.0177
7.025,0.0127
7.0278,0.0115
7.0306,0.0032
7.0333,0.0084
7.0361,-0.0021
7.0389,0.0037
7.0417,0.0035
7.0444,-0.0042
7.0472,0.0101
7.05,0.0029
7.0528,0.0112
7.0556,0.0007
7.0583,-0.0028
7.0611,-0.0031
7.0639,-0.0044
7.0667,-0.003
7.0694,-0.0014
7.0722,0.0011
7.075,0.0091
7.0778,0.0065
7.0806,0.0001
7.0833,-0.0105
7.0861,0.0075
7.0889,0.0072
7.0917,0.0024
7.0944,0.0036
7.0972,0.0093
7.1,-0.0101
7.1028,-0.0074
7.1056,-0.0139
7.1083,-0.0249
7.1111,-0.028
7.1139,-0.0444
7.1167,-0.0319
7.1194,-0.0188
7.1222,-0.0171
7.125,-0.014
7.1278,0.0392
7.1306,0.1496
7.1333,0.228
7.1361,0.3072
7.1389,0.4075
7.1417,0.484
7.1444,0.5401
7.1472,0.6044
7.15,0.6473
7.1528,0.7175
7.1556,0.7449
7.1583,0.7945
7.1611,0.7739
7.1639,0.8081
7.1667,0.7866
7.1694,0.7781
7.1722,0.7418
7.175,0.7078
7.1778,0.6502
7.1806,0.5913
7.1833,0.5395
7.1861,0.4677
7.1889,0.3871
7.1917,0.3145
7.1944,0.2185
7.1972,0.1244
7.2,0.0113
7.2028,-0.0147
7.2056,-0.0318
7.2083,-0.0536
7.2111,-0.071
7.2139,-0.087
7.2167,-0.0833
7.2194,-0.1035
7.2222,-0.1177
7.225,-0.1274
7.2278,-0.1087
7.2306,-0.0969
7.2333,-0.1042
7.2361,-0.0914
7.2389,-0.0798
7.2417,-0.0812
7.2444,-0.0383
7.2472,-0.0413
7.25,0.0005
7.2528,-0.0095
7.2556,-0.0008
7.2583,-0.0147
7.2611,0.0067
7.2639,-0.004
7.2667,0.0109
7.2694,0.0061
7.2722,-0.0014
7.275,-0.023
7.2778,-0.0281
7.2806,-0.0042
7.2833,-0.0119
7.2861,-0.0072
7.2889,-0.0095
7.2917,-0.0183
7.2944,-0.0133
7.2972,-0.0018
7.3,-0.0049
7.3028,-0.0017
7.3056,-0.0215
7.3083,0.002
7.3111,0.0111
7.3139,-0.0141
7.3167,-0.0068
7.3194,-0.0013
7.3222,-0.0043
7.325,0.0056
7.3278,-0.005
7.3306,-0.0133
7.3333,0.0135
7.3361,-0.0019
7.3389,0.0173
7.3417,-0.0056
7.3444,-0.0029
7.3472,-0.0111
7.35,-0.0109
7.3528,-0.0022
7.3556,-0.0136
7.3583,-0.0023
7.3611,-0.0078
7.3639,0.0047
7.3667,0.0153
7.3694,0.0039
7.3722,-0.0222
7.375,-0.0022
7.3778,0.0121
7.3806,-0.0
7.3833,0.021
7.3861,0.0358
7.3889,0.0277
7.3917,0.0308
7.3944,0.0379
7.3972,0.0403
7.4,0.0505
7.4028,0.0591
7.4056,0.0628
7.4083,0.0697
7.4111,0.0702
7.4139,0.0721
7.4167,0.0961
7.4194,0.0886
7.4222,0.0797
7.425,0.0915
7.4278,0.1034
7.4306,0.0901
7.4333,0.0969
7.4361,0.1104
7.4389,0.1035
7.4417,0.107
7.4444,0.1151
7.4472,0.1282
7.45,0.1179
7.4528,0.1483
7.4556,0.1207
7.4583,0.1378
7.4611,0.1339
7.4639,0.1258
7.4667,0.1538
7.4694,0.1373
7.4722,0.1288
7.475,0.1407
7.4778,0.1581
7.4806,0.1431
7.4833,0.1602
7.4861,0.1403
7.4889,0.1528
7.4917,0.139
7.4944,0.1503
7.4972,0.1499
7.5,0.1344
7.5028,0.1671
7.5056,0.1286
7.5083,0.1627
7.5111,0.1584
7.5139,0.1466
7.5167,0.1471
7.5194,0.1595
7.5222,0.141
7.525,0.1422
7.5278,0.1622
7.5306,0.144
7.5333,0.14
7.5361,0.1384
7.5389,0.1176
7.5417,0.1382
7.5444,0.1239
7.5472,0.1155
7.55,0.1365
7.5528,0.119
7.5556,0.1237
7.5583,0.1218
7.5611,0.0854
7.5639,0.101
7.5667,0.0991
7.5694,0.077
7.5722,0.0732
7.575,0.0727
7.5778,0.0815
7.5806,0.0588
7.5833,0.0725
7.5861,0.0658
7.5889,0.068
7.5917,0.0494
7.5944,0.0496
7.5972,0.0397
7.6,0.033
7.6028,0.0474
7.6056,0.0306
7.6083,0.0326
7.6111,0.008
7.6139,0.0232
7.6167,0.0215
7.6194,0.0164
7.6222,-0.0018
7.625,0.0217
7.6278,0.0097
7.6306,0.0258
7.6333,0.0118
7.6361,0.0011
7.6389,-0.0015
7.6417,0.012
7.6444,-0.0028
7.6472,0.0048
7.65,0.0101
7.6528,-0.0024
7.6556,0.0029
7.6583,0.0179
7.6611,-0.0136
7.6639,0.0033
7.6667,-0.0131
7.6694,0.0069
7.6722,-0.0094
7.675,-0.0017
7.6778,-0.0129
7.6806,-0.0005
7.6833,0.0041
7.6861,-0.0106
7.6889,-0.0058
7.6917,0.0066
7.6944,0.0024
7.6972,0.012
7.7,0.0071
7.7028,-0.0013
7.7056,-0.0081
7.7083,0.0164
7.7111,-0.0098
7.7139,0.0155
7.7167,0.0038
7.7194,-0.0013
7.7222,-0.0096
7.725,-0.0035
7.7278,-0.0023
7.7306,0.005
7.7333,0.005
7.7361,-0.0008
7.7389,-0.0092
7.7417,-0.0027
7.7444,-0.0108
7.7472,-0.0047
7.75,0.0013
7.7528,-0.0002
7.7556,-0.0159
7.7583,-0.0027
7.7611,-0.0234
7.7639,-0.0072
7.7667,0.0107
7.7694,0.0035
7.7722,-0.0032
7.775,-0.0054
7.7778,-0.0213
7.7806,-0.0004
7.7833,-0.0045
7.7861,0.0081
7.7889,0.0019
7.7917,-0.0063
7.7944,-0.0013
7.7972,0.0024
7.8,-0.0021
7.8028,0.0007
7.8056,-0.0144
7.8083,0.0028
7.8111,0.0039
7.8139,-0.0142
7.8167,0.001
7.8194,0.0129
7.8222,-0.0021
7.825,-0.0027
7.8278,-0.0126
7.8306,0.0011
7.8333,0.0044
7.8361,0.0155
7.8389,-0.01
7.8417,-0.0121
7.8444,0.0216
7.8472,-0.0101
7.85,-0.0063
7.8528,-0.0237
7.8556,-0.0019
7.8583,-0.0026
7.8611,0.0101
7.8639,0.0044
7.8667,-0.0089
7.8694,0.0041
7.8722,0.0062
7.875,-0.0111
7.8778,-0.0017
7.8806,-0.0133
7.8833,0.0013
7.8861,0.0073
7.8889,-0.0131
7.8917,-0.0045
7.8944,-0.013
7.8972,-0.0093
7.9,-0.0086
7.9028,0.0061
7.9056,-0.0051
7.9083,-0.0141
7.9111,-0.005
7.9139,-0.0083
7.9167,-0.0053
7.9194,0.0012
7.9222,0.0025
7.925,0.0116
7.9278,-0.0044
7.9306,0.0211
7.9333,-0.0005
7.9361,-0.0009
7.9389,-0.0131
7.9417,0.0054
7.9444,-0.0018
7.9472,-0.001
7.95,-0.0135
7.9528,0.0092
7.9556,-0.0069
7.9583,-0.0152
7.9611,0.0168
7.9639,0.0037
7.9667,-0.0075
7.9694,0.0009
7.9722,-0.007
7.975,-0.0054
7.9778,-0.0069
7.9806,0.0123
7.9833,0.0076
7.9861,0.0192
7.9889,-0.0048
7.9917,-0.0223
7.9944,0.0011
7.9972,0.0131
8.0,-0.0024
8.0028,-0.0024
8.0056,-0.0117
8.0083,-0.0065
8.0111,-0.0082
8.0139,-0.0048
8.0167,-0.0031
8.0194,0.0177
8.0222,0.0088
8.025,0.0087
8.0278,0.0256
8.0306,0.0029
8.0333,0.0037
8.0361,-0.0118
8.0389,-0.0068
8.0417,-0.0009
8.0444,-0.0007
8.0472,0.0092
8.05,0.0136
8.0528,0.0033
8.0556,-0.0265
8.0583,-0.0134
8.0611,0.0139
8.0639,0.0078
8.0667,-0.0024
8.0694,0.0024
8.0722,0.0162
8.075,0.0007
8.0778,0.0047
8.0806,0.0003
8.0833,0.0104
8.0861,0.0094
8.0889,-0.0013
8.0917,-0.0103
8.0944,0.0367
8.0972,0.0281
8.1,0.0207
8.1028,0.0313
8.1056,0.0284
8.1083,0.0467
8.1111,0.0424
8.1139,0.0365
8.1167,0.042
8.1194,0.0477
8.1222,0.0456
8.125,0.0445
8.1278,0.0804
8.1306,0.0665
8.1333,0.0666
8.1361,0.0665
8.1389,0.0687
8.1417,0.0701
8.1444,0.0615
8.1472,0.0967
8.15,0.0629
8.1528,0.0647
8.1556,0.073
8.1583,0.076
8.1611,0.0792
8.1639,0.0734
8.1667,0.074
8.1694,0.0782
8.1722,0.0677
8.175,0.0826
8.1778,0.1074
8.1806,0.0927
8.1833,0.0867
8.1861,0.0992
8.1889,0.0846
8.1917,0.0672
8.1944,0.0847
8.1972,0.0727
8.2,0.0764
8.2028,0.0677
8.2056,0.0737
8.2083,0.0589
8.2111,0.0599
8.2139,0.0527
8.2167,0.0447
8.2194,0.0656
8.2222,0.0417
8.225,0.0366
8.2278,0.0261
8.2306,0.0223
8.2333,0.0172
8.2361,0.0259
8.2389,0.0134
8.2417,0.0112
8.2444,0.0048
8.2472,-0.0095
8.25,0.0072
8.2528,-0.0052
8.2556,0.0116
8.2583,0.0075
8.2611,0.0155
8.2639,-0.0038
8.2667,-0.0061
8.2694,0.0055
8.2722,-0.0097
8.275,-0.0007
8.2778,-0.0004
8.2806,0.0058
8.2833,0.0125
8.2861,-0.0011
8.2889,-0.0067
8.2917,0.0011
8.2944,-0.013
8.2972,-0.009
8.3,0.0068
8.3028,0.0034
8.3056,0.0029
8.3083,-0.0053
8.3111,-0.0034
8.3139,0.0042
8.3167,-0.0103
8.3194,-0.0303
8.3222,0.0061
8.325,-0.0097
8.3278,-0.0097
8.3306,-0.0322
8.3333,-0.0498
8.3361,-0.0523
8.3389,-0.0349
8.3417,-0.0112
8.3444,-0.0131
8.3472,0.0423
8.35,0.1464
8.3528,0.2196
8.3556,0.3153
8.3583,0.4098
8.3611,0.474
8.3639,0.5727
8.3667,0.6237
8.3694,0.662
8.3722,0.7432
8.375,0.7513
8.3778,0.7926
8.3806,0.8025
8.3833,0.8014
8.3861,0.8085
8.3889,0.7587
8.3917,0.7242
8.3944,0.6838
8.3972,0.627
8.4,0.5765
8.4028,0.4772
8.4056,0.4093
8.4083,0.3274
8.4111,0.2483
8.4139,0.1381
8.4167,0.0339
8.4194,-0.0162
8.4222,-0.0427
8.425,-0.059
8.4278,-0.071
8.4306,-0.0963
8.4333,-0.1024
8.4361,-0.1121
8.4389,-0.1226
8.4417,-0.1344
8.4444,-0.1205
8.4472,-0.1229
8.45,-0.1143
8.4528,-0.0918
8.4556,-0.0755
8.4583,-0.0862
8.4611,-0.0233
8.4639,-0.0092
8.4667,-0.0082
8.4694,0.0089
8.4722,-0.0096
8.475,0.0001
8.4778,0.0029
8.4806,0.0023
8.4833,-0.0053
8.4861,-0.0142
8.4889,0.0115
8.4917,-0.0085
8.4944,-0.0129
8.4972,0.0168
8.5,-0.0146
8.5028,-0.0102
8.5056,-0.0026
8.5083,0.0068
8.5111,0.0159
8.5139,0.0227
8.5167,0.0192
8.5194,0.0024
8.5222,0.0038
8.525,-0.0093
8.5278,0.0168
8.5306,0.0013
8.5333,0.0092
8.5361,-0.0103
8.5389,-0.0059
8.5417,-0.0176
8.5444,0.0085
8.5472,0.0051
8.55,-0.0022
8.5528,-0.0039
8.5556,0.0027
8.5583,-0.0002
8.5611,-0.0125
8.5639,0.0024
8.5667,0.0106
8.5694,-0.0088
8.5722,-0.0004
8.575,0.001
8.5778,0.0137
8.5806,-0.0007
8.5833,-0.0123
8.5861,0.0109
8.5889,0.0319
8.5917,0.0359
8.5944,0.0004
8.5972,0.0255
8.6,0.0284
8.6028,0.0277
8.6056,0.0311
8.6083,0.0263
8.6111,0.0641
8.6139,0.0545
8.6167,0.0363
8.6194,0.0677
8.6222,0.0821
8.625,0.0815
8.6278,0.0724
8.6306,0.1047
8.6333,0.0942
8.6361,0.0961
8.6389,0.09
8.6417,0.0929
8.6444,0.0963
8.6472,0.1148
8.65,0.131
8.6528,0.1121
8.6556,0.1253
8.6583,0.1249
8.6611,0.1115
8.6639,0.1283
8.6667,0.1244
8.6694,0.1366
8.6722,0.1314
8.675,0.1337
8.6778,0.1431
8.6806,0.1522
8.6833,0.1523
8.6861,0.1371
8.6889,0.147
8.6917,0.1395
8.6944,0.1547
8.6972,0.1384
8.7,0.1638
8.7028,0.1438
8.7056,0.1603
8.7083,0.1506
8.7111,0.1336
8.7139,0.1314
8.7167,0.1616
8.7194,0.1421
8.7222,0.1544
8.725,0.1624
8.7278,0.1387
8.7306,0.1547
8.7333,0.137
8.7361,0.1414
8.7389,0.1374
8.7417,0.1329
8.7444,0.1221
8.7472,0.1216
8.75,0.126
8.7528,0.1026
8.7556,0.1159
8.7583,0.1088
8.7611,0.0949
8.7639,0.1101
8.7667,0.1036
8.7694,0.1171
8.7722,0.0942
8.775,0.083
8.7778,0.0917
8.7806,0.0846
8.7833,0.0848
8.7861,0.066
8.7889,0.0613
8.7917,0.0465
8.7944,0.0608
8.7972,0.058
8.8,0.0356
8.8028,0.0321
8.8056,0.0461
8.8083,0.0217
8.8111,0.0316
8.8139,0.0166
8.8167,0.0214
8.8194,0.0217
8.8222,0.0051
8.825,0.0022
8.8278,-0.0029
8.8306,0.0059
8.8333,-0.0208
8.8361,-0.0067
8.8389,-0.0043
8.8417,0.0084
8.8444,-0.004
8.8472,-0.0115
8.85,-0.0008
8.8528,-0.0043
8.8556,0.0145
8.8583,-0.0024
8.8611,-0.0051
8.8639,-0.0085
8.8667,-0.0039
8.8694,-0.0063
8.8722,0.0123
8.875,0.0159
8.8778,0.0185
8.8806,-0.0107
8.8833,0.0122
8.8861,0.0048
8.8889,0.0296
8.8917,0.0128
8.8944,0.0035
8.8972,-0.0051
8.9,0.0058
8.9028,0.0142
8.9056,-0.0017
8.9083,0.0004
8.9111,0.0174
8.9139,0.0032
8.9167,-0.0003
8.9194,0.0103
8.9222,0.0238
8.925,-0.0174
8.9278,0.0141
8.9306,-0.0191
8.9333,-0.0004
8.9361,0.0149
8.9389,-0.0155
8.9417,0.0102
8.9444,-0.0096
8.9472,-0.0112
8.95,0.0162
8.9528,-0.0117
8.9556,-0.004
8.9583,-0.0009
8.9611,0.0021
8.9639,-0.002
8.9667,0.0102
8.9694,-0.0085
8.9722,-0.0056
8.975,-0.0127
8.9778,-0.0113
8.9806,-0.0018
8.9833,0.0074
8.9861,-0.0157
8.9889,-0.0161
8.9917,-0.0026
8.9944,0.0143
8.9972,-0.0238
9.0,-0.0076
9.0028,0.0153
9.0056,-0.0098
9.0083,-0.0003
9.0111,0.0087
9.0139,-0.0012
9.0167,-0.0056
9.0194,-0.0076
9.0222,0.0014
9.025,-0.0089
9.0278,-0.0022
9.0306,0.0069
9.0333,0.0001
9.0361,-0.0073
9.0389,-0.0255
9.0417,0.008
9.0444,-0.0068
9.0472,0.0144
9.05,-0.0032
9.0528,0.0086
9.0556,-0.0163
9.0583,0.0261
9.0611,0.0167
9.0639,0.0086
9.0667,0.0064
9.0694,-0.0069
9.0722,-0.0015
9.075,0.0004
9.0778,-0.0164
9.0806,-0.0099
9.0833,0.0196
9.0861,0.0075
9.0889,-0.0061
9.0917,0.0216
9.0944,0.0065
9.0972,-0.0106
9.1,-0.0028
9.1028,-0.0017
9.1056,0.0132
9.1083,-0.0023
9.1111,0.007
9.1139,-0.0047
9.1167,0.0206
9.1194,0.0002
9.1222,-0.0082
9.125,0.0032
9.1278,-0.0003
9.1306,0.0
9.1333,-0.0109
9.1361,0.0052
9.1389,0.0032
9.1417,-0.0052
9.1444,-0.0052
9.1472,0.0004
9.15,-0.0101
9.1528,0.0193
9.1556,0.0047
9.1583,-0.004
9.1611,-0.0072
9.1639,-0.0021
9.1667,-0.0048
9.1694,0.0077
9.1722,0.0051
9.175,-0.0006
9.1778,-0.0157
9.1806,-0.0077
9.1833,0.0017
9.1861,0.0119
9.1889,0.0121
9.1917,0.002
9.1944,0.0155
9.1972,-0.0032
9.2,0.0026
9.2028,0.009
9.2056,-0.0039
9.2083,0.0049
9.2111,0.0064
9.2139,-0.0043
9.2167,-0.0122
9.2194,-0.0208
9.2222,-0.0097
9.225,0.0013
9.2278,0.0016
9.2306,-0.0008
9.2333,0.0013
9.2361,0.0122
9.2389,0.0136
9.2417,0.0165
9.2444,-0.0122
9.2472,-0.0066
9.25,-0.002
9.2528,0.0025
9.2556,0.0004
9.2583,-0.0088
9.2611,0.0046
9.2639,-0.0181
9.2667,-0.008
9.2694,0.0142
9.2722,-0.0012
9.275,0.0365
9.2778,0.0219
9.2806,0.0234
9.2833,0.0313
9.2861,0.0472
9.2889,0.0264
9.2917,0.0452
9.2944,0.0451
9.2972,0.0413
9.3,0.0462
9.3028,0.0462
9.3056,0.0643
9.3083,0.0782
9.3111,0.0786
9.3139,0.0694
9.3167,0.075
9.3194,0.0873
9.3222,0.084
9.325,0.0685
9.3278,0.0847
9.3306,0.0766
9.3333,0.0988
9.3361,0.1005
9.3389,0.0897
9.3417,0.0682
9.3444,0.0836
9.3472,0.0713
9.35,0.0908
9.3528,0.0626
9.3556,0.0721
9.3583,0.0733
9.3611,0.0859
9.3639,0.0841
9.3667,0.0588
9.3694,0.0772
9.3722,0.0675
9.375,0.0555
9.3778,0.0552
9.3806,0.0551
9.3833,0.0502
9.3861,0.0429
9.3889,0.052
9.3917,0.0307
9.3944,0.0422
9.3972,0.0309
9.4,0.0117
9.4028,0.0285
9.4056,0.0157
9.4083,0.0026
9.4111,0.0046
9.4139,0.0027
9.4167,-0.0095
9.4194,-0.002
9.4222,-0.0316
9.425,-0.0049
9.4278,-0.003
9.4306,0.0071
9.4333,0.0094
9.4361,0.0101
9.4389,-0.0241
9.4417,-0.0094
9.4444,0.0114
9.4472,-0.0157
9.45,0.0001
9.4528,-0.0125
9.4556,-0.0047
9.4583,-0.0001
9.4611,0.0066
9.4639,-0.0085
9.4667,-0.0164
9.4694,-0.0099
9.4722,-0.0081
9.475,-0.0192
9.4778,0.0064
9.4806,-0.0298
9.4833,-0.0327
9.4861,-0.034
9.4889,-0.0245
9.4917,-0.0358
9.4944,-0.0378
9.4972,-0.0017
9.5,0.0369
9.5028,0.169
9.5056,0.2634
9.5083,0.3686
9.5111,0.4642
9.5139,0.5622
9.5167,0.6272
9.5194,0.6809
9.5222,0.7209
9.525,0.7847
9.5278,0.7988
9.5306,0.8121
9.5333,0.7821
9.5361,0.7773
9.5389,0.7233
9.5417,0.6839
9.5444,0.6124
9.5472,0.5443
9.55,0.4764
9.5528,0.3497
9.5556,0.2626
9.5583,0.1428
9.5611,0.0274
9.5639,-0.0002
9.5667,-0.0529
9.5694,-0.0495
9.5722,-0.0875
9.575,-0.1001
9.5778,-0.1045
9.5806,-0.1066
9.5833,-0.1124
9.5861,-0.1084
9.5889,-0.129
9.5917,-0.0957
9.5944,-0.0837
9.5972,-0.0648
9.6,-0.0342
9.6028,-0.0196
9.6056,-0.0097
9.6083,0.0034
9.6111,-0.0036
9.6139,-0.0046
9.6167,-0.0092
9.6194,-0.0036
9.6222,0.0126
9.625,-0.0091
9.6278,-0.0044
9.6306,-0.0063
9.6333,-0.0017
9.6361,0.0053
9.6389,0.0097
9.6417,-0.0224
9.6444,-0.0083
9.6472,0.0147
9.65,0.0024
9.6528,0.0164
9.6556,0.0113
9.6583,-0.0113
9.6611,-0.0099
9.6639,0.0036
9.6667,-0.0166
9.6694,0.0071
9.6722,0.0138
9.675,0.0056
9.6778,-0.0049
9.6806,-0.0016
9.6833,-0.0061
9.6861,0.022
9.6889,-0.0067
9.6917,-0.0058
9.6944,-0.0059
9.6972,0.0112
9.7,0.0139
9.7028,0.001
9.7056,-0.0024
9.7083,0.003
9.7111,-0.0006
9.7139,-0.0018
9.7167,0.0162
9.7194,0.0238
9.7222,0.0308
9.725,0.057
9.7278,0.0289
9.7306,0.0217
9.7333,0.0543
9.7361,0.0543
9.7389,0.0575
9.7417,0.0604
9.7444,0.0873
9.7472,0.0922
9.75,0.0766
9.7528,0.0869
9.7556,0.0839
9.7583,0.1192
9.7611,0.1018
9.7639,0.1071
9.7667,0.1129
9.7694,0.1003
9.7722,0.1232
9.775,0.1304
9.7778,0.1391
9.7806,0.1261
9.7833,0.1427
9.7861,0.1399
9.7889,0.1548
9.7917,0.1384
9.7944,0.132
9.7972,0.1457
9.8,0.136
9.8028,0.1461
9.8056,0.1448
9.8083,0.1451
9.8111,0.1358
9.8139,0.1399
9.8167,0.1547
9.8194,0.1318
9.8222,0.1411
9.825,0.1389
9.8278,0.154
9.8306,0.1403
9.8333,0.151
9.8361,0.1586
9.8389,0.1422
9.8417,0.1186
9.8444,0.14
9.8472,0.143
9.85,0.1485
9.8528,0.1289
9.8556,0.1411
9.8583,0.1367
9.8611,0.1158
9.8639,0.1209
9.8667,0.0925
9.8694,0.1276
9.8722,0.0883
9.875,0.0915
9.8778,0.1033
9.8806,0.1148
9.8833,0.0957
9.8861,0.0737
9.8889,0.0914
9.8917,0.0702
9.8944,0.072
9.8972,0.0585
9.9,0.0323
9.9028,0.035
9.9056,0.0279
9.9083,0.027
9.9111,0.0338
9.9139,0.0177
9.9167,0.0107
9.9194,0.0114
9.9222,-0.0058
9.925,0.0095
9.9278,0.0082
9.9306,-0.0136
9.9333,-0.0128
9.9361,-0.0105
9.9389,-0.0069
9.9417,0.0128
9.9444,-0.0105
9.9472,-0.0076
9.95,-0.0111
9.9528,0.0073
9.9556,-0.0173
9.9583,-0.004
9.9611,-0.0061
9.9639,0.0053
9.9667,-0.0025
9.9694,0.0091
9.9722,0.0099
9.975,0.0137
9.9778,0.0026
9.9806,0.0096
9.9833,0.0055
9.9861,0.0029
9.9889,0.0045
9.9917,0.0016
9.9944,-0.0127
9.9972,0.0124
10.0,-0.0057
10.0028,-0.0065
10.0056,0.01
10.0083,-0.0012
10.0111,-0.0038
10.0139,0.0026
10.0167,-0.0005
10.0194,-0.0194
10.0222,-0.0015
10.025,0.0088
10.0278,-0.0058
10.0306,-0.0144
10.0333,-0.0035
10.0361,0.0037
10.0389,0.0124
10.0417,0.0087
10.0444,-0.0058
10.0472,0.0022
10.05,0.0107
10.0528,-0.0163
10.0556,0.0108
10.0583,-0.0048
10.0611,-0.0057
10.0639,0.0004
10.0667,0.0119
10.0694,-0.0127
10.0722,0.0122
10.075,0.015
10.0778,0.0044
10.0806,0.005
10.0833,-0.0093
10.0861,-0.0063
10.0889,-0.002
10.0917,0.0173
10.0944,0.0023
10.0972,-0.0109
10.1,0.0084
10.1028,0.0111
10.1056,-0.0077
10.1083,-0.0101
10.1111,0.0119
10.1139,0.0094
10.1167,0.0035
10.1194,-0.0242
10.1222,0.0088
10.125,0.0239
10.1278,-0.0022
10.1306,-0.0076
10.1333,0.0038
10.1361,0.0211
10.1389,0.0051
10.1417,0.0108
10.1444,0.0033
10.1472,0.0098
10.15,0.0014
10.1528,-0.0175
10.1556,0.0025
10.1583,0.0077
10.1611,0.001
10.1639,0.0085
10.1667,-0.0158
10.1694,-0.0081
10.1722,0.0057
10.175,0.0073
10.1778,0.0023
10.1806,-0.0038
10.1833,-0.0101
10.1861,0.0193
10.1889,-0.0046
10.1917,0.007
10.1944,0.0032
10.1972,0.008
10.2,-0.006
10.2028,0.0005
10.2056,0.0176
10.2083,-0.0021
10.2111,0.0167
10.2139,-0.0082
10.2167,0.0148
10.2194,0.011
10.2222,0.0133
10.225,-0.0122
10.2278,-0.0197
10.2306,0.0013
10.2333,0.0064
10.2361,0.0065
10.2389,-0.0058
10.2417,0.0015
10.2444,0.0224
10.2472,-0.0183
10.25,-0.0022
10.2528,-0.007
10.2556,0.0164
10.2583,0.0072
10.2611,-0.0127
10.2639,-0.0044
10.2667,0.0055
10.2694,0.018
10.2722,-0.0072
10.275,0.012
10.2778,-0.0023
10.2806,-0.0252
10.2833,0.0098
10.2861,0.005
10.2889,-0.0077
10.2917,0.0149
10.2944,-0.0044
10.2972,-0.0177
10.3,-0.0147
10.3028,0.018
10.3056,-0.001
10.3083,0.0031
10.3111,0.0079
10.3139,-0.0048
10.3167,-0.0036
10.3194,0.0007
10.3222,0.0225
10.325,-0.0017
10.3278,-0.0077
10.3306,-0.0115
10.3333,-0.0053
10.3361,0.0064
10.3389,0.0149
10.3417,0.0052
10.3444,0.0234
10.3472,0.0257
10.35,0.0395
10.3528,0.023
10.3556,0.0413
10.3583,0.0349
10.3611,0.0284
10.3639,0.0468
10.3667,0.0576
10.3694,0.0445
10.3722,0.077
10.375,0.0679
10.3778,0.0701
10.3806,0.0766
10.3833,0.0572
10.3861,0.0552
10.3889,0.0796
10.3917,0.0763
10.3944,0.0688
10.3972,0.0685
10.4,0.094
10.4028,0.0802
10.4056,0.0829
10.4083,0.0852
10.4111,0.0661
10.4139,0.0835
10.4167,0.0679
10.4194,0.079
10.4222,0.08
10.425,0.0699
10.4278,0.0652
10.4306,0.0848
10.4333,0.0606
10.4361,0.0883
10.4389,0.0697
10.4417,0.0744
10.4444,0.0642
10.4472,0.0668
10.45,0.0756
10.4528,0.0632
10.4556,0.0618
10.4583,0.0403
10.4611,0.047
10.4639,0.0472
10.4667,0.0422
10.4694,0.0378
10.4722,0.0359
10.475,0.0366
10.4778,0.0247
10.4806,0.0224
10.4833,0.0369
10.4861,0.0199
10.4889,0.0028
10.4917,0.0199
10.4944,0.0044
10.4972,0.0135
10.5,0.0126
10.5028,-0.0004
10.5056,-0.0098
10.5083,0.0085
10.5111,-0.0114
10.5139,0.0047
10.5167,-0.0025
10.5194,0.007
10.5222,-0.0037
10.525,-0.0047
10.5278,-0.0034
10.5306,0.0125
10.5333,0.0015
10.5361,-0.0034
10.5389,0.0099
10.5417,-0.0104
10.5444,-0.015
10.5472,-0.0167
10.55,-0.0091
10.5528,0.0121
10.5556,0.0031
10.5583,-0.0121
10.5611,-0.0056
10.5639,-0.0169
10.5667,-0.0039
10.5694,-0.0088
10.5722,-0.0256
10.575,-0.0468
10.5778,-0.0397
10.5806,-0.0072
10.5833,-0.0176
10.5861,-0.0253
10.5889,0.069
10.5917,0.1437
10.5944,0.2753
10.5972,0.3621
10.6,0.4202
10.6028,0.5084
10.6056,0.5816
10.6083,0.645
10.6111,0.6951
10.6139,0.7347
10.6167,0.7762
10.6194,0.7911
10.6222,0.8055
10.625,0.7952
10.6278,0.7733
10.6306,0.7238
10.6333,0.6919
10.6361,0.6484
10.6389,0.5985
10.6417,0.5084
10.6444,0.4197
10.6472,0.335
10.65,0.2431
10.6528,0.1111
10.6556,0.0656
10.6583,0.0069
10.6611,-0.0443
10.6639,-0.0608
10.6667,-0.0762
10.6694,-0.0763
10.6722,-0.1057
10.675,-0.1007
10.6778,-0.1321
10.6806,-0.1228
10.6833,-0.1048
10.6861,-0.1268
10.6889,-0.1071
10.6917,-0.0814
10.6944,-0.0779
10.6972,-0.0461
10.7,-0.0264
10.7028,0.0141
10.7056,0.0093
10.7083,-0.0183
10.7111,-0.0027
10.7139,-0.0066
10.7167,0.0129
10.7194,0.02
10.7222,0.0124
10.725,0.0083
10.7278,0.0129
10.7306,0.0079
10.7333,-0.0115
10.7361,0.0079
10.7389,-0.0061
10.7417,-0.0156
10.7444,-0.0035
10.7472,0.0032
10.75,0.003
10.7528,0.0125
10.7556,0.0093
10.7583,-0.0167
10.7611,-0.0094
10.7639,0.006
10.7667,-0.0019
10.7694,0.01
10.7722,-0.0047
10.775,-0.0045
10.7778,0.0147
10.7806,0.0017
10.7833,0.0025
10.7861,-0.0124
10.7889,-0.0035
10.7917,-0.0126
10.7944,-0.0007
10.7972,0.0037
10.8,0.0097
10.8028,-0.0102
10.8056,0.0084
10.8083,0.008
10.8111,0.003
10.8139,0.0058
10.8167,0.0055
10.8194,-0.0018
10.8222,0.0259
10.825,0.0136
10.8278,0.0107
10.8306,0.0232
10.8333,0.0174
10.8361,0.0341
10.8389,0.0489
10.8417,0.0331
10.8444,0.0382
10.8472,0.0457
10.85,0.0623
10.8528,0.0469
10.8556,0.0816
10.8583,0.0685
10.8611,0.092
10.8639,0.0843
10.8667,0.0703
10.8694,0.0965
10.8722,0.1054
10.875,0.1093
10.8778,0.1047
10.8806,0.1099
10.8833,0.1105
10.8861,0.1151
10.8889,0.1399
10.8917,0.1295
10.8944,0.1358
10.8972,0.1247
10.9,0.1162
10.9028,0.1271
10.9056,0.1763
10.9083,0.1349
10.9111,0.1498
10.9139,0.1528
10.9167,0.1365
10.9194,0.1441
10.9222,0.1405
10.925,0.1532
10.9278,0.1358
10.9306,0.1627
10.9333,0.1719
10.9361,0.1481
10.9389,0.1266
10.9417,0.1389
10.9444,0.1584
10.9472,0.1493
10.95,0.1421
10.9528,0.1488
10.9556,0.1574
10.9583,0.1534
10.9611,0.1531
10.9639,0.144
10.9667,0.131
10.9694,0.1223
10.9722,0.1646
10.975,0.1454
10.9778,0.1391
10.9806,0.1121
10.9833,0.119
10.9861,0.1211
10.9889,0.1208
10.9917,0.1046
10.9944,0.1058
10.9972,0.0913
11.0,0.1116
11.0028,0.0902
11.0056,0.0997
11.0083,0.0891
11.0111,0.0677
11.0139,0.0666
11.0167,0.0666
11.0194,0.0638
11.0222,0.0426
11.025,0.062
11.0278,0.0481
11.0306,0.0466
11.0333,0.0243
11.0361,0.0393
11.0389,0.0363
11.0417,0.0281
11.0444,0.0069
11.0472,0.0019
11.05,0.0024
11.0528,0.0059
11.0556,0.013
11.0583,-0.012
11.0611,-0.0047
11.0639,0.006
11.0667,-0.0033
11.0694,-0.0043
11.0722,-0.0181
11.075,0.0136
11.0778,-0.0084
11.0806,-0.0091
11.0833,0.0013
11.0861,-0.0077
11.0889,-0.0102
11.0917,0.0084
11.0944,0.0041
11.0972,0.0086
11.1,-0.0196
11.1028,-0.0103
11.1056,0.0088
11.1083,0.0039
11.1111,0.0092
11.1139,-0.021
11.1167,0.0077
11.1194,0.0119
11.1222,0.0008
11.125,-0.0178
11.1278,-0.0003
11.1306,0.0154
11.1333,-0.0017
11.1361,0.0024
11.1389,0.0027
11.1417,0.0113
11.1444,0.0229
11.1472,0.0066
11.15,0.0006
11.1528,0.0043
11.1556,0.0096
11.1583,-0.0135
11.1611,-0.0069
11.1639,-0.0045
11.1667,0.0107
11.1694,-0.0054
11.1722,0.0018
11.175,-0.0193
11.1778,-0.0045
11.1806,0.014
11.1833,0.0184
11.1861,-0.0087
11.1889,-0.0033
11.1917,-0.0004
11.1944,-0.0124
11.1972,0.0061
11.2,0.0063
11.2028,-0.0005
11.2056,-0.0034
11.2083,-0.0059
11.2111,0.0058
11.2139,0.0086
11.2167,0.0011
11.2194,0.0005
11.2222,0.0303
11.225,0.0018
11.2278,0.0039
11.2306,-0.008
11.2333,-0.0143
11.2361,0.0089
11.2389,0.0053
11.2417,0.0112
11.2444,-0.0178
11.2472,-0.0068
11.25,-0.0153
11.2528,0.0016
11.2556,0.0031
11.2583,-0.0003
11.2611,-0.0184
11.2639,0.0171
11.2667,0.0173
11.2694,0.0013
11.2722,0.0053
11.275,0.0155
11.2778,0.0022
11.2806,0.0144
11.2833,-0.0053
11.2861,0.0107
11.2889,0.0078
11.2917,0.0129
11.2944,-0.0081
11.2972,0.0149
11.3,-0.0148
11.3028,0.0113
11.3056,0.0001
11.3083,0.0088
11.3111,-0.0031
11.3139,0.0085
11.3167,-0.0158
11.3194,-0.018
11.3222,0.0069
11.325,0.0099
11.3278,-0.0105
11.3306,-0.0011
11.3333,0.0101
11.3361,-0.0127
11.3389,0.0175
11.3417,0.0059
11.3444,-0.0175
11.3472,0.0011
11.35,0.0146
11.3528,-0.0035
11.3556,-0.0083
11.3583,-0.002
11.3611,0.0097
11.3639,-0.0237
11.3667,0.0093
11.3694,-0.0074
11.3722,0.0029
11.375,-0.0079
11.3778,0.0093
11.3806,-0.0019
11.3833,-0.0103
11.3861,-0.0084
11.3889,0.0019
11.3917,0.0053
11.3944,0.0191
11.3972,0.0064
11.4,-0.0094
11.4028,0.0002
11.4056,0.0093
11.4083,0.0005
11.4111,0.0062
11.4139,-0.0109
11.4167,0.0111
11.4194,0.0006
11.4222,-0.0069
11.425,0.0162
11.4278,-0.0018
11.4306,-0.0004
11.4333,-0.0093
11.4361,-0.0073
11.4389,-0.0012
11.4417,-0.0103
11.4444,0.0065
11.4472,-0.0054
11.45,0.0034
11.4528,-0.0054
11.4556,0.0144
11.4583,-0.0034
11.4611,0.0084
11.4639,0.0102
11.4667,-0.0129
11.4694,0.0159
11.4722,-0.009
11.475,-0.0088
11.4778,0.012
11.4806,0.0043
11.4833,-0.0011
11.4861,0.0016
11.4889,-0.0035
11.4917,0.0027
11.4944,-0.0007
11.4972,0.0271
11.5,0.0216
11.5028,0.0368
11.5056,0.0218
11.5083,0.0205
11.5111,0.0433
11.5139,0.0377
11.5167,0.0258
11.5194,0.0277
11.5222,0.0544
11.525,0.0587
11.5278,0.065
11.5306,0.064
11.5333,0.0692
11.5361,0.0832
11.5389,0.0762
11.5417,0.0793
11.5444,0.0527
11.5472,0.0759
11.55,0.0607
11.5528,0.0705
11.5556,0.0831
11.5583,0.1014
11.5611,0.0768
11.5639,0.0894
11.5667,0.0857
11.5694,0.077
11.5722,0.0803
11.575,0.0764
11.5778,0.0621
11.5806,0.0689
11.5833,0.0734
11.5861,0.0609
11.5889,0.0663
11.5917,0.0546
11.5944,0.0516
11.5972,0.0513
11.6,0.0623
11.6028,0.0546
11.6056,0.0711
11.6083,0.0578
11.6111,0.0588
11.6139,0.0498
11.6167,0.0389
11.6194,0.0309
11.6222,0.0395
11.625,0.0132
11.6278,0.0088
11.6306,0.0152
11.6333,0.0144
11.6361,-0.0045
11.6389,-0.002
11.6417,0.0124
11.6444,0.0118
11.6472,-0.0054
11.65,0.0087
11.6528,-0.0025
11.6556,0.0053
11.6583,-0.0051
11.6611,-0.0106
11.6639,0.0083
11.6667,0.0005
11.6694,-0.0038
11.6722,-0.0084
11.675,0.0073
11.6778,-0.0241
11.6806,-0.0111
11.6833,-0.012
11.6861,-0.0057
11.6889,-0.0039
11.6917,-0.0037
11.6944,0.0265
11.6972,-0.0019
11.7,0.0172
11.7028,-0.0056
11.7056,0.0024
11.7083,-0.0058
11.7111,-0.016
11.7139,-0.0313
11.7167,-0.0301
11.7194,-0.0442
11.7222,-0.0388
11.725,-0.0263
11.7278,-0.0116
11.7306,0.0487
11.7333,0.1634
11.7361,0.2508
11.7389,0.3483
11.7417,0.4448
11.7444,0.5452
11.7472,0.6088
11.75,0.662
11.7528,0.7169
11.7556,0.7586
11.7583,0.7735
11.7611,0.8074
11.7639,0.7918
11.7667,0.7736
11.7694,0.7532
11.7722,0.7294
11.775,0.6576
11.7778,0.5813
11.7806,0.5277
11.7833,0.4385
11.7861,0.3431
11.7889,0.2569
11.7917,0.1307
11.7944,0.0352
11.7972,-0.0124
11.8,-0.0353
11.8028,-0.0786
11.8056,-0.085
11.8083,-0.0922
11.8111,-0.1154
11.8139,-0.1308
11.8167,-0.1406
11.8194,-0.1105
11.8222,-0.1059
11.825,-0.1209
11.8278,-0.0717
11.8306,-0.0787
11.8333,-0.0461
11.8361,-0.0212
11.8389,-0.0095
11.8417,0.0023
11.8444,0.006
11.8472,0.0019
11.85,0.0002
11.8528,0.0076
11.8556,0.0076
11.8583,0.0016
11.8611,-0.0026
11.8639,0.0043
11.8667,0.0072
11.8694,-0.0051
11.8722,0.0023
11.875,-0.0032
11.8778,-0.0046
11.8806,0.0145
11.8833,-0.0118
11.8861,-0.004
11.8889,0.0175
11.8917,0.0034
11.8944,-0.0067
11.8972,0.0191
11.9,-0.0121
11.9028,0.0102
11.9056,-0.0208
11.9083,0.0001
11.9111,-0.0076
11.9139,0.0067
11.9167,0.0091
11.9194,0.0039
11.9222,0.0026
11.925,-0.0091
11.9278,-0.0044
11.9306,0.0068
11.9333,-0.0137
11.9361,0.0142
11.9389,0.0148
11.9417,0.002
11.9444,-0.0018
11.9472,-0.0082
11.95,-0.0094
11.9528,-0.0009
11.9556,0.0027
11.9583,-0.0032
11.9611,0.0139
11.9639,0.0413
11.9667,0.0413
11.9694,0.0479
11.9722,0.043
11.975,0.0645
11.9778,0.0668
11.9806,0.0573
11.9833,0.0721
11.9861,0.0667
11.9889,0.0647
11.9917,0.0843
11.9944,0.0874
11.9972,0.092
12.0,0.0958
12.0028,0.0974
12.0056,0.1067
12.0083,0.1012
12.0111,0.1005
12.0139,0.1146
12.0167,0.1228
12.0194,0.1097
12.0222,0.1369
12.025,0.1394
12.0278,0.1515
12.0306,0.1316
12.0333,0.14
12.0361,0.1382
12.0389,0.1569
12.0417,0.1522
12.0444,0.1432
12.0472,0.1359
12.05,0.1669
12.0528,0.1538
12.0556,0.1557
12.0583,0.1495
12.0611,0.1414
12.0639,0.1391
12.0667,0.1488
12.0694,0.1419
12.0722,0.1625
12.075,0.1407
12.0778,0.1414
12.0806,0.1614
12.0833,0.1378
12.0861,0.165
12.0889,0.1428
12.0917,0.1113
12.0944,0.1129
12.0972,0.1208
12.1,0.1192
12.1028,0.1374
12.1056,0.111
12.1083,0.104
12.1111,0.1096
12.1139,0.1029
12.1167,0.1003
12.1194,0.1085
12.1222,0.0952
12.125,0.0773
12.1278,0.0922
12.1306,0.0869
12.1333,0.083
12.1361,0.0822
12.1389,0.0692
12.1417,0.0554
12.1444,0.043
12.1472,0.0434
12.15,0.0474
12.1528,0.0313
12.1556,0.0314
12.1583,0.0281
12.1611,0.0113
12.1639,0.006
12.1667,-0.0077
12.1694,-0.0114
12.1722,-0.0017
12.175,0.0086
12.1778,-0.0037
12.1806,-0.0145
12.1833,0.0033
12.1861,0.019
12.1889,-0.0094
12.1917,-0.0065
12.1944,0.0225
12.1972,0.0059
12.2,0.0085
12.2028,-0.0022
12.2056,-0.012
12.2083,-0.0062
12.2111,-0.0036
12.2139,-0.0091
12.2167,0.0105
12.2194,-0.0129
12.2222,-0.0111
12.225,0.0087
12.2278,-0.0178
12.2306,-0.0066
12.2333,0.0054
12.2361,-0.0086
12.2389,-0.0191
12.2417,0.0123
12.2444,-0.0019
12.2472,0.0017
12.25,0.013
12.2528,-0.0029
12.2556,-0.0147
12.2583,0.0096
12.2611,0.0047
12.2639,0.0077
12.2667,0.0051
12.2694,-0.0022
12.2722,0.0046
12.275,0.0109
12.2778,-0.0089
12.2806,0.0123
12.2833,0.0159
12.2861,-0.0017
12.2889,-0.0132
12.2917,0.0039
12.2944,0.0162
12.2972,-0.0057
12.3,0.0016
12.3028,-0.0066
12.3056,0.0084
12.3083,0.0097
12.3111,0.0047
12.3139,0.0034
12.3167,0.007
12.3194,0.0147
12.3222,0.0268
12.325,-0.0146
12.3278,-0.0012
12.3306,0.0025
12.3333,-0.004
12.3361,-0.0014
12.3389,0.0011
12.3417,-0.0096
12.3444,0.002
12.3472,-0.0031
12.35,-0.0058
12.3528,0.0078
12.3556,-0.012
12.3583,-0.0013
12.3611,-0.013
12.3639,-0.0023
12.3667,0.0074
12.3694,-0.0023
12.3722,0.0006
12.375,0.0136
12.3778,-0.0053
12.3806,-0.0158
12.3833,0.012
12.3861,0.0036
12.3889,-0.0065
12.3917,-0.0079
12.3944,0.0049
12.3972,-0.0
12.4,-0.0062
12.4028,0.0147
12.4056,-0.0119
12.4083,0.0083
12.4111,-0.0018
12.4139,0.0106
12.4167,0.0053
12.4194,-0.0135
12.4222,-0.0002
12.425,0.0059
12.4278,-0.014
12.4306,0.0027
12.4333,-0.008
12.4361,0.0036
12.4389,0.0079
12.4417,-0.0012
12.4444,-0.0053
12.4472,-0.0018
12.45,0.0119
12.4528,-0.0219
12.4556,-0.0053
12.4583,0.0006
12.4611,0.0039
12.4639,-0.0022
12.4667,-0.0037
12.4694,0.0015
12.4722,0.0041
12.475,0.0159
12.4778,-0.0065
12.4806,0.0044
12.4833,-0.0112
12.4861,0.0167
12.4889,0.0185
12.4917,-0.0009
12.4944,-0.0256
12.4972,-0.0021
12.5,-0.0088
12.5028,-0.0003
12.5056,-0.0082
12.5083,0.0066
12.5111,0.0019
12.5139,0.0038
12.5167,0.0042
12.5194,0.0128
12.5222,0.0163
12.525,0.0069
12.5278,0.0128
12.5306,0.0069
12.5333,0.0068
12.5361,-0.0169
12.5389,-0.0144
12.5417,0.0026
12.5444,0.008
12.5472,0.0135
12.55,-0.0128
12.5528,0.0139
12.5556,-0.0025
12.5583,0.0026
12.5611,-0.0118
12.5639,0.0034
12.5667,0.0056
12.5694,-0.0112
12.5722,-0.0092
12.575,-0.002
12.5778,-0.0132
12.5806,-0.0075
12.5833,-0.0032
12.5861,0.0047
12.5889,0.0027
12.5917,-0.0101
12.5944,-0.0069
12.5972,0.0067
12.6,0.0038
12.6028,-0.01
12.6056,0.0313
12.6083,0.0113
12.6111,0.0183
12.6139,0.0361
12.6167,0.044
12.6194,0.0259
12.6222,0.0236
12.625,0.0621
12.6278,0.046
12.6306,0.0565
12.6333,0.0569
12.6361,0.0528
12.6389,0.0767
12.6417,0.0641
12.6444,0.0739
12.6472,0.0807
12.65,0.0713
12.6528,0.0539
12.6556,0.0679
12.6583,0.0966
12.6611,0.0807
12.6639,0.0837
12.6667,0.0778
12.6694,0.0688
12.6722,0.0727
12.675,0.0747
12.6778,0.0917
12.6806,0.0921
12.6833,0.0747
12.6861,0.0715
12.6889,0.0585
12.6917,0.0756
12.6944,0.0755
12.6972,0.0779
12.7,0.0543
12.7028,0.0669
12.7056,0.0554
12.7083,0.0601
12.7111,0.0543
12.7139,0.0722
12.7167,0.0586
12.7194,0.0567
12.7222,0.0735
12.725,0.051
12.7278,0.0572
12.7306,0.0287
12.7333,0.0356
12.7361,0.0441
12.7389,0.0362
12.7417,0.0226
12.7444,0.0023
12.7472,0.0075
12.75,0.0108
12.7528,0.0151
12.7556,0.0026
12.7583,0.0019
12.7611,-0.0006
12.7639,-0.0051
12.7667,0.0032
12.7694,0.0057
12.7722,-0.0186
12.775,0.0064
12.7778,0.0096
12.7806,-0.0066
12.7833,-0.0082
12.7861,-0.0018
12.7889,0.0061
12.7917,0.0248
12.7944,-0.0065
12.7972,-0.0134
12.8,0.0136
12.8028,0.0156
12.8056,0.0079
12.8083,-0.0039
12.8111,-0.0059
12.8139,-0.0079
12.8167,-0.02
12.8194,0.0037
12.8222,0.0028
12.825,-0.0005
12.8278,-0.0146
12.8306,-0.0332
12.8333,-0.0077
12.8361,-0.0241
12.8389,-0.0431
12.8417,-0.0395
12.8444,-0.0091
12.8472,0.0002
12.85,0.0198
12.8528,0.0908
12.8556,0.1811
12.8583,0.2893
12.8611,0.3702
12.8639,0.4438
12.8667,0.5409
12.8694,0.6076
12.8722,0.6508
12.875,0.7031
12.8778,0.7584
12.8806,0.7604
12.8833,0.7904
12.8861,0.8011
12.8889,0.775
12.8917,0.771
12.8944,0.7442
12.8972,0.7041
12.9,0.6358
12.9028,0.5788
12.9056,0.4787
12.9083,0.4078
12.9111,0.3053
12.9139,0.2424
12.9167,0.1343
12.9194,0.0466
12.9222,-0.0224
12.925,-0.0504
12.9278,-0.0583
12.9306,-0.0708
12.9333,-0.0991
12.9361,-0.1228
12.9389,-0.1315
12.9417,-0.1281
12.9444,-0.1067
12.9472,-0.1164
12.95,-0.1091
12.9528,-0.0963
12.9556,-0.0847
12.9583,-0.0723
12.9611,-0.031
12.9639,-0.0303
12.9667,0.0049
12.9694,-0.0005
12.9722,-0.0075
12.975,-0.0109
12.9778,0.0057
12.9806,-0.0068
12.9833,0.0046
12.9861,0.0136
12.9889,-0.0005
12.9917,0.0065
12.9944,-0.0076
12.9972,0.0047
13.0,-0.0124
13.0028,0.0066
13.0056,-0.013
13.0083,-0.0083
13.0111,0.0147
13.0139,0.0077
13.0167,-0.0124
13.0194,0.0149
13.0222,0.0136
13.025,0.0053
13.0278,-0.0014
13.0306,0.0069
13.0333,-0.0045
13.0361,-0.0128
13.0389,0.0006
13.0417,-0.0062
13.0444,0.0011
13.0472,-0.0238
13.05,-0.0099
13.0528,0.0075
13.0556,0.0007
13.0583,-0.0173
13.0611,0.0014
13.0639,-0.0046
13.0667,-0.0056
13.0694,-0.016
13.0722,-0.0085
13.075,0.0187
13.0778,-0.0005
13.0806,0.0198
13.0833,-0.0017
13.0861,0.0201
13.0889,0.0199
13.0917,0.0242
13.0944,0.0272
13.0972,0.0328
13.1,0.0485
13.1028,0.0386
13.1056,0.0544
13.1083,0.0382
13.1111,0.0495
13.1139,0.0699
13.1167,0.0446
13.1194,0.0846
13.1222,0.0724
13.125,0.0888
13.1278,0.0772
13.1306,0.0938
13.1333,0.0902
13.1361,0.0991
13.1389,0.0932
13.1417,0.0904
13.1444,0.11
13.1472,0.1061
13.15,0.1046
13.1528,0.1274
13.1556,0.1142
13.1583,0.1307
13.1611,0.1333
13.1639,0.1306
13.1667,0.144
13.1694,0.1459
13.1722,0.1462
13.175,0.1426
13.1778,0.1495
13.1806,0.1388
13.1833,0.1303
13.1861,0.1612
13.1889,0.1549
13.1917,0.1574
13.1944,0.161
13.1972,0.1672
13.2,0.1627
13.2028,0.1401
13.2056,0.1552
13.2083,0.1484
13.2111,0.1674
13.2139,0.1428
13.2167,0.1548
13.2194,0.1309
13.2222,0.1227
13.225,0.1345
13.2278,0.15
13.2306,0.1456
13.2333,0.1408
13.2361,0.1488
13.2389,0.1239
13.2417,0.1192
13.2444,0.1211
13.2472,0.1099
13.25,0.1396
13.2528,0.119
13.2556,0.1004
13.2583,0.1204
13.2611,0.0936
13.2639,0.0974
13.2667,0.0992
13.2694,0.1
13.2722,0.0889
13.275,0.0755
13.2778,0.0591
13.2806,0.0636
13.2833,0.0764
13.2861,0.059
13.2889,0.0523
13.2917,0.0596
13.2944,0.0412
13.2972,0.0512
13.3,0.0401
13.3028,0.026
13.3056,0.022
13.3083,0.0133
13.3111,-0.0026
13.3139,0.0059
13.3167,0.005
13.3194,-0.0002
13.3222,-0.0082
13.325,-0.0163
13.3278,0.015
13.3306,0.0117
13.3333,-0.0047
13.3361,-0.0059
13.3389,0.0231
13.3417,0.0036
13.3444,0.0168
13.3472,0.0205
13.35,-0.0003
13.3528,0.0017
13.3556,0.0105
13.3583,-0.0038
13.3611,-0.0017
13.3639,-0.0048
13.3667,-0.0041
13.3694,0.0082
13.3722,-0.0333
13.375,0.0015
13.3778,0.0012
13.3806,0.0011
13.3833,0.0119
13.3861,-0.0075
13.3889,0.0032
13.3917,-0.0087
13.3944,-0.0072
13.3972,0.0058
13.4,0.0091
13.4028,-0.0039
13.4056,0.0145
13.4083,0.0121
13.4111,-0.0103
13.4139,0.0074
13.4167,0.0107
13.4194,0.0036
13.4222,0.011
13.425,-0.0008
13.4278,0.0164
13.4306,0.0028
13.4333,-0.0102
13.4361,-0.0053
13.4389,0.0013
13.4417,-0.0029
13.4444,0.0053
13.4472,0.0141
13.45,-0.0039
13.4528,0.014
13.4556,0.0053
13.4583,-0.0132
13.4611,0.0072
13.4639,0.0076
13.4667,-0.0146
13.4694,0.0004
13.4722,0.0034
13.475,0.0116
13.4778,-0.002
13.4806,-0.0056
13.4833,-0.0
13.4861,0.0002
13.4889,-0.0006
13.4917,-0.0033
13.4944,-0.021
13.4972,0.0015
13.5,-0.0039
13.5028,-0.0228
13.5056,0.0066
13.5083,-0.0045
13.5111,0.0126
13.5139,0.0004
13.5167,-0.0025
13.5194,-0.0111
13.5222,0.0102
13.525,0.0007
13.5278,-0.0
13.5306,-0.0038
13.5333,0.0092
13.5361,-0.0003
13.5389,0.0169
13.5417,0.0112
13.5444,-0.0087
13.5472,0.0085
13.55,0.0111
13.5528,0.0091
13.5556,-0.0025
13.5583,-0.003
13.5611,-0.0044
13.5639,0.016
13.5667,0.0027
13.5694,-0.0105
13.5722,0.0056
13.575,-0.0091
13.5778,0.0038
13.5806,0.0024
13.5833,-0.0018
13.5861,0.0061
13.5889,-0.0123
13.5917,-0.012
13.5944,-0.0135
13.5972,-0.0039
13.6,0.0015
13.6028,-0.0015
13.6056,0.003
13.6083,-0.005
13.6111,0.0047
13.6139,0.0049
13.6167,-0.0046
13.6194,0.0038
13.6222,-0.0141
13.625,-0.0103
13.6278,0.0008
13.6306,-0.0023
13.6333,0.0029
13.6361,0.0034
13.6389,-0.0116
13.6417,-0.01
13.6444,-0.0093
13.6472,-0.0076
13.65,-0.0026
13.6528,0.0099
13.6556,0.0189
13.6583,0.0051
13.6611,-0.0065
13.6639,-0.0087
13.6667,-0.01
13.6694,0.02
13.6722,-0.0002
13.675,-0.0017
13.6778,-0.0072
13.6806,-0.0094
13.6833,-0.0173
13.6861,0.0015
13.6889,0.0008
13.6917,0.0045
13.6944,-0.0124
13.6972,-0.0093
13.7,0.0031
13.7028,0.0032
13.7056,0.004
13.7083,0.0032
13.7111,0.0015
13.7139,0.0023
13.7167,0.0055
13.7194,-0.0065
13.7222,0.0012
13.725,0.0136
13.7278,0.0022
13.7306,0.0107
13.7333,-0.0103
13.7361,-0.0038
13.7389,0.0022
13.7417,0.0083
13.7444,-0.0046
13.7472,-0.0106
13.75,-0.0016
13.7528,0.0056
13.7556,0.0167
13.7583,0.0133
13.7611,0.0329
13.7639,0.0412
13.7667,0.0156
13.7694,0.0323
13.7722,0.0558
13.775,0.0694
13.7778,0.0559
13.7806,0.0666
13.7833,0.0585
13.7861,0.0567
13.7889,0.0562
13.7917,0.0838
13.7944,0.0609
13.7972,0.0723
13.8,0.0803
13.8028,0.0733
13.8056,0.0887
13.8083,0.0674
13.8111,0.0787
13.8139,0.0713
13.8167,0.0763
13.8194,0.0899
13.8222,0.0857
13.825,0.0856
13.8278,0.0872
13.8306,0.0652
13.8333,0.0844
13.8361,0.088
13.8389,0.0668
13.8417,0.0731
13.8444,0.0705
13.8472,0.0619
13.85,0.0756
13.8528,0.0415
13.8556,0.0389
13.8583,0.0389
13.8611,0.0514
13.8639,0.0541
13.8667,0.0343
13.8694,0.0243
13.8722,0.0263
13.875,0.0174
13.8778,0.0374
13.8806,0.0247
13.8833,0.0079
13.8861,0.0091
13.8889,0.0131
13.8917,-0.0038
13.8944,0.0058
13.8972,-0.0041
13.9,-0.0113
13.9028,-0.0017
13.9056,-0.0114
13.9083,-0.0002
13.9111,0.0041
13.9139,-0.0159
13.9167,0.0052
13.9194,-0.0159
13.9222,-0.0014
13.925,0.0049
13.9278,-0.007
13.9306,-0.0055
13.9333,-0.0109
13.9361,0.0112
13.9389,-0.011
13.9417,0.0032
13.9444,-0.0095
13.9472,-0.0035
13.95,0.0116
13.9528,-0.0066
13.9556,-0.0206
13.9583,-0.023
13.9611,-0.0407
13.9639,-0.0402
13.9667,-0.036
13.9694,-0.0289
13.9722,-0.0021
13.975,0.1198
13.9778,0.2246
13.9806,0.3275
13.9833,0.4241
13.9861,0.4906
13.9889,0.6
13.9917,0.662
13.9944,0.7206
13.9972,0.7679
14.0,0.7835
14.0028,0.8042
14.0056,0.7916
14.0083,0.7564
14.0111,0.7333
14.0139,0.6872
14.0167,0.6047
14.0194,0.5345
14.0222,0.4549
14.025,0.3296
14.0278,0.2347
14.0306,0.1217
14.0333,0.0023
14.0361,-0.0278
14.0389,-0.0426
14.0417,-0.0669
14.0444,-0.091
14.0472,-0.1071
14.05,-0.1309
14.0528,-0.1248
14.0556,-0.1252
14.0583,-0.1224
14.0611,-0.1001
14.0639,-0.0861
14.0667,-0.0802
14.0694,-0.0731
14.0722,-0.0327
14.075,0.0056
14.0778,-0.0102
14.0806,-0.0042
14.0833,-0.0049
14.0861,0.0005
14.0889,-0.0068
14.0917,0.011
14.0944,0.0233
14.0972,0.0047
14.1,-0.0242
14.1028,0.0125
14.1056,0.0067
14.1083,0.0022
14.1111,-0.011
14.1139,0.0063
14.1167,-0.0028
14.1194,0.0142
14.1222,0.001
14.125,-0.006
14.1278,-0.0041
14.1306,0.0087
14.1333,0.0014
14.1361,-0.0008
14.1389,-0.0113
14.1417,-0.0196
14.1444,0.0051
14.1472,0.0011
14.15,-0.0056
14.1528,0.0213
14.1556,0.0046
14.1583,0.0183
14.1611,-0.0198
14.1639,-0.0021
14.1667,0.0036
14.1694,-0.0022
14.1722,0.0146
14.175,-0.019
14.1778,-0.0012
14.1806,0.0189
14.1833,0.016
14.1861,0.0104
14.1889,0.0204
14.1917,0.0116
14.1944,0.0315
14.1972,0.0381
14.2,0.0556
14.2028,0.0549
14.2056,0.0708
14.2083,0.0773
14.2111,0.0809
14.2139,0.082
14.2167,0.0821
14.2194,0.0845
14.2222,0.0804
14.225,0.0984
14.2278,0.102
14.2306,0.0986
14.2333,0.1165
14.2361,0.1085
14.2389,0.1084
14.2417,0.143
14.2444,0.1369
14.2472,0.1416
14.25,0.1291
14.2528,0.1415
14.2556,0.14
14.2583,0.1438
14.2611,0.134
14.2639,0.1391
14.2667,0.1516
14.2694,0.1338
14.2722,0.1363
14.275,0.125
14.2778,0.1572
14.2806,0.1371
14.2833,0.1476
14.2861,0.149
14.2889,0.1527
14.2917,0.1513
14.2944,0.1597
14.2972,0.1451
14.3,0.137
14.3028,0.1455
14.3056,0.1617
14.3083,0.1436
14.3111,0.1326
14.3139,0.1249
14.3167,0.1372
14.3194,0.1015
14.3222,0.115
14.325,0.1344
14.3278,0.1034
14.3306,0.1214
14.3333,0.1113
14.3361,0.0978
14.3389,0.0777
14.3417,0.0812
14.3444,0.0951
14.3472,0.0787
14.35,0.0722
14.3528,0.0842
14.3556,0.0747
14.3583,0.0589
14.3611,0.0515
14.3639,0.049
14.3667,0.0495
14.3694,0.0289
14.3722,0.0388
14.375,0.0079
14.3778,0.0267
14.3806,0.0033
14.3833,-0.0134
14.3861,-0.0047
14.3889,0.0054
14.3917,-0.0072
14.3944,-0.0117
14.3972,0.0012
14.4,-0.022
14.4028,0.0012
14.4056,0.0166
14.4083,0.0251
14.4111,-0.0131
14.4139,-0.003
14.4167,-0.0191
14.4194,0.0114
14.4222,0.0151
14.425,0.0119
14.4278,-0.0091
14.4306,0.0062
14.4333,-0.0005
14.4361,-0.0046
14.4389,-0.0101
14.4417,-0.0076
14.4444,0.0084
14.4472,0.0048
14.45,-0.0027
14.4528,-0.0063
14.4556,-0.02
14.4583,0.0096
14.4611,-0.0161
14.4639,-0.0101
14.4667,-0.0052
14.4694,-0.0252
14.4722,0.0086
14.475,0.0292
14.4778,-0.0068
14.4806,-0.0136
14.4833,0.0138
14.4861,0.0201
14.4889,-0.0047
14.4917,-0.0001
14.4944,0.0095
14.4972,-0.0137
14.5,0.0206
14.5028,0.004
14.5056,-0.0116
14.5083,0.0051
14.5111,-0.0015
14.5139,0.0006
14.5167,-0.0069
14.5194,-0.0121
14.5222,0.0035
14.525,-0.0095
14.5278,-0.0232
14.5306,0.0009
14.5333,-0.0074
14.5361,-0.0083
14.5389,0.0027
14.5417,-0.0113
14.5444,-0.0036
14.5472,0.0021
14.55,0.0121
14.5528,-0.0045
14.5556,-0.0053
14.5583,-0.0092
14.5611,-0.0088
14.5639,0.0047
14.5667,0.0045
14.5694,0.0022
14.5722,-0.0114
14.575,-0.0001
14.5778,-0.001
14.5806,0.0014
14.5833,0.0001
14.5861,0.002
14.5889,-0.0066
14.5917,-0.0164
14.5944,-0.0099
14.5972,-0.0034
14.6,-0.018
14.6028,0.0114
14.6056,0.0052
14.6083,0.0039
14.6111,0.0043
14.6139,-0.0092
14.6167,-0.001
14.6194,-0.0031
14.6222,0.006
14.625,0.0118
14.6278,-0.0043
14.6306,-0.0108
14.6333,0.0118
14.6361,-0.0072
14.6389,0.0074
14.6417,-0.0066
14.6444,0.0006
14.6472,-0.0111
14.65,0.0029
14.6528,-0.0229
14.6556,-0.0018
14.6583,-0.0099
14.6611,-0.0225
14.6639,-0.0031
14.6667,0.0092
14.6694,-0.02
14.6722,-0.0058
14.675,0.0056
14.6778,-0.0037
14.6806,0.0078
14.6833,-0.0183
14.6861,-0.0104
14.6889,0.0013
14.6917,0.0122
14.6944,0.0177
14.6972,-0.0047
14.7,0.0141
14.7028,0.0016
14.7056,-0.0179
14.7083,-0.0051
14.7111,0.0031
14.7139,0.0015
14.7167,0.0205
14.7194,-0.0071
14.7222,0.0085
14.725,-0.0118
14.7278,0.0084
14.7306,0.0038
14.7333,0.0048
14.7361,0.0044
14.7389,0.0044
14.7417,-0.0078
14.7444,0.0014
14.7472,0.0039
14.75,-0.0031
14.7528,-0.0008
14.7556,0.0209
14.7583,0.004
14.7611,0.003
14.7639,0.0031
14.7667,-0.0052
14.7694,0.008
14.7722,-0.0085
14.775,0.0042
14.7778,0.0139
14.7806,-0.0124
14.7833,0.0197
14.7861,-0.0099
14.7889,0.0206
14.7917,0.0241
14.7944,0.042
14.7972,0.0437
14.8,0.0583
14.8028,0.0368
14.8056,0.0619
14.8083,0.0319
14.8111,0.0322
14.8139,0.0498
14.8167,0.0596
14.8194,0.067
14.8222,0.0582
14.825,0.0652
14.8278,0.0591
14.8306,0.0736
14.8333,0.0679
14.8361,0.0907
14.8389,0.0881
14.8417,0.0845
14.8444,0.081
14.8472,0.0785
14.85,0.091
14.8528,0.076
14.8556,0.0717
14.8583,0.0959
14.8611,0.0678
14.8639,0.0809
14.8667,0.0701
14.8694,0.063
14.8722,0.0832
14.875,0.0747
14.8778,0.0518
14.8806,0.0621
14.8833,0.0687
14.8861,0.06
14.8889,0.0724
14.8917,0.0696
14.8944,0.0532
14.8972,0.0446
14.9,0.0359
14.9028,0.0422
14.9056,0.0341
14.9083,0.0315
14.9111,0.048
14.9139,0.0322
14.9167,0.0305
14.9194,0.0295
14.9222,0.0217
14.925,-0.0112
14.9278,0.0166
14.9306,-0.0048
14.9333,0.0014
14.9361,0.0076
14.9389,0.0021
14.9417,0.0065
14.9444,-0.0196
14.9472,0.0132
14.95,-0.0047
14.9528,0.009
14.9556,-0.0037
14.9583,-0.0152
14.9611,-0.016
14.9639,0.0084
14.9667,-0.0094
14.9694,0.0013
14.9722,-0.0158
14.975,0.0028
14.9778,0.0007
14.9806,0.0098
14.9833,-0.0095
14.9861,0.0018
14.9889,-0.0106
14.9917,-0.0102
14.9944,-0.0023
14.9972,-0.0169
15.0,-0.0365
15.0028,-0.0442
15.0056,-0.048
15.0083,-0.0321
15.0111,-0.0275
15.0139,-0.0205
15.0167,0.0425
15.0194,0.1481
15.0222,0.2514
15.025,0.3455
15.0278,0.4659
15.0306,0.5575
15.0333,0.6125
15.0361,0.6768
15.0389,0.7417
15.0417,0.7702
15.0444,0.788
15.0472,0.7852
15.05,0.7898
15.0528,0.7867
15.0556,0.7335
15.0583,0.7087
15.0611,0.6453
15.0639,0.5817
15.0667,0.4964
15.0694,0.4137
15.0722,0.3139
15.075,0.1866
15.0778,0.0989
15.0806,-0.0003
15.0833,-0.0182
15.0861,-0.051
15.0889,-0.0566
15.0917,-0.09
15.0944,-0.119
15.0972,-0.1148
15.1,-0.1221
15.1028,-0.1233
15.1056,-0.1118
15.1083,-0.1088
15.1111,-0.0996
15.1139,-0.1001
15.1167,-0.0579
15.1194,-0.0229
15.1222,-0.0094
15.125,0.0
15.1278,0.0097
15.1306,-0.0142
15.1333,-0.0074
15.1361,0.0039
15.1389,0.0049
15.1417,-0.0006
15.1444,-0.0003
15.1472,0.0059
15.15,-0.0062
15.1528,0.0082
15.1556,0.0061
15.1583,-0.0152
15.1611,-0.0183
15.1639,0.0045
15.1667,-0.0101
15.1694,0.0062
15.1722,-0.0101
15.175,-0.0012
15.1778,0.0016
15.1806,0.0026
15.1833,-0.0019
15.1861,0.0023
15.1889,-0.0021
15.1917,0.0043
15.1944,-0.0123
15.1972,0.0122
15.2,-0.0024
15.2028,-0.0062
15.2056,0.0003
15.2083,-0.0099
15.2111,-0.0015
15.2139,0.0044
15.2167,0.0068
15.2194,0.0069
15.2222,-0.0039
15.225,-0.002
15.2278,-0.0152
15.2306,-0.0033
15.2333,-0.006
15.2361,0.0151
15.2389,0.0277
15.2417,0.0168
15.2444,0.0362
15.2472,0.0357
15.25,0.0179
15.2528,0.0461
15.2556,0.0457
15.2583,0.0732
15.2611,0.052
15.2639,0.0591
15.2667,0.0659
15.2694,0.085
15.2722,0.0821
15.275,0.0997
15.2778,0.101
15.2806,0.1139
15.2833,0.0923
15.2861,0.1071
15.2889,0.1143
15.2917,0.0978
15.2944,0.1215
15.2972,0.1265
15.3,0.1182
15.3028,0.1332
15.3056,0.139
15.3083,0.1468
15.3111,0.1352
15.3139,0.1301
15.3167,0.1618
15.3194,0.1596
15.3222,0.1427
15.325,0.1132
15.3278,0.1401
15.3306,0.1399
15.3333,0.1413
15.3361,0.1472
15.3389,0.1413
15.3417,0.1447
15.3444,0.1559
15.3472,0.1482
15.35,0.1422
15.3528,0.1427
15.3556,0.1488
15.3583,0.1459
15.3611,0.1429
15.3639,0.1384
15.3667,0.1239
15.3694,0.1505
15.3722,0.1394
15.375,0.1487
15.3778,0.136
15.3806,0.1275
15.3833,0.1272
15.3861,0.1439
15.3889,0.1082
15.3917,0.1024
15.3944,0.1004
15.3972,0.107
15.4,0.1021
15.4028,0.0862
15.4056,0.0795
15.4083,0.0903
15.4111,0.0755
15.4139,0.0806
15.4167,0.0734
15.4194,0.0477
15.4222,0.0389
15.425,0.0564
15.4278,0.051
15.4306,0.0414
15.4333,0.0104
15.4361,0.0347
15.4389,0.0191
15.4417,0.0026
15.4444,0.009
15.4472,0.0133
15.45,-0.0074
15.4528,0.0042
15.4556,-0.0072
15.4583,-0.0028
15.4611,0.0099
15.4639,0.0174
15.4667,-0.0081
15.4694,0.0092
15.4722,-0.0097
15.475,0.0001
15.4778,0.0112
15.4806,0.0075
15.4833,-0.0038
15.4861,0.0044
15.4889,0.0162
15.4917,-0.0111
15.4944,-0.0116
15.4972,-0.0046
15.5,-0.0054
15.5028,-0.0048
15.5056,-0.0053
15.5083,0.0001
15.5111,-0.0091
15.5139,0.0048
15.5167,-0.0113
15.5194,-0.0022
15.5222,-0.0023
15.525,-0.0033
15.5278,0.004
15.5306,0.0084
15.5333,-0.0168
15.5361,-0.0045
15.5389,0.0043
15.5417,0.0035
15.5444,-0.0081
15.5472,-0.0035
15.55,-0.0143
15.5528,-0.0009
15.5556,-0.012
15.5583,0.0048
15.5611,0.0058
15.5639,-0.0035
15.5667,-0.0096
15.5694,0.0134
15.5722,-0.0014
15.575,0.0007
15.5778,-0.0042
15.5806,0.0055
15.5833,-0.0107
15.5861,-0.0078
15.5889,-0.0003
15.5917,-0.003
15.5944,0.0111
15.5972,0.0149
15.6,0.0137
15.6028,-0.016
15.6056,-0.0239
15.6083,0.0064
15.6111,0.0095
15.6139,0.0089
15.6167,0.0049
15.6194,0.0267
15.6222,-0.0107
15.625,0.0087
15.6278,-0.0036
15.6306,0.0155
15.6333,0.006
15.6361,0.0099
15.6389,-0.0061
15.6417,-0.0065
15.6444,-0.0069
15.6472,-0.0121
15.65,0.0066
15.6528,0.0002
15.6556,-0.0259
15.6583,0.005
15.6611,0.0035
15.6639,0.0004
15.6667,0.0006
15.6694,0.0018
15.6722,0.0071
15.675,0.0043
15.6778,-0.0059
15.6806,-0.0049
15.6833,0.0083
15.6861,-0.003
15.6889,0.0025
15.6917,0.0091
15.6944,-0.0111
15.6972,0.0197
15.7,0.0262
15.7028,-0.0118
15.7056,0.0166
15.7083,0.0081
15.7111,-0.0086
15.7139,0.0
15.7167,-0.0012
15.7194,0.0128
15.7222,0.0048
15.725,0.0057
15.7278,-0.0014
15.7306,0.0136
15.7333,0.0071
15.7361,-0.0051
15.7389,-0.0069
15.7417,-0.0024
15.7444,-0.0023
15.7472,-0.0094
15.75,-0.0051
15.7528,0.0105
15.7556,-0.0064
15.7583,0.0077
15.7611,-0.0221
15.7639,-0.0057
15.7667,-0.0086
15.7694,0.0072
15.7722,-0.0154
15.775,-0.0067
15.7778,-0.0102
15.7806,0.0157
15.7833,-0.0079
15.7861,-0.0063
15.7889,0.0059
15.7917,-0.0056
15.7944,0.0052
15.7972,-0.0011
15.8,-0.0069
15.8028,-0.0016
15.8056,0.0139
15.8083,-0.0061
15.8111,-0.001
15.8139,-0.0047
15.8167,-0.0077
15.8194,-0.0078
15.8222,-0.0029
15.825,0.0118
15.8278,-0.0037
15.8306,-0.0092
15.8333,0.0008
15.8361,-0.0056
15.8389,0.0055
15.8417,0.0144
15.8444,-0.0043
15.8472,-0.0001
15.85,-0.03
15.8528,-0.0142
15.8556,-0.0024
15.8583,0.0125
15.8611,0.0144
15.8639,0.0268
15.8667,0.016
15.8694,0.0244
15.8722,0.0348
15.875,0.0189
15.8778,0.0298
15.8806,0.0497
15.8833,0.0424
15.8861,0.0568
15.8889,0.0503
15.8917,0.0519
15.8944,0.0636
15.8972,0.0396
15.9,0.0507
15.9028,0.0698
15.9056,0.0789
15.9083,0.06
15.9111,0.0771
15.9139,0.0898
15.9167,0.0854
15.9194,0.0964
15.9222,0.0838
15.925,0.0852
15.9278,0.0882
15.9306,0.1105
15.9333,0.0804
15.9361,0.0949
15.9389,0.0788
15.9417,0.08
15.9444,0.0598
15.9472,0.0675
15.95,0.0717
15.9528,0.0693
15.9556,0.0744
15.9583,0.0583
15.9611,0.0492
15.9639,0.0492
15.9667,0.0535
15.9694,0.0624
15.9722,0.0589
15.975,0.0402
15.9778,0.0298
15.9806,0.0289
15.9833,0.0326
15.9861,0.0229
15.9889,0.012
15.9917,0.0242
15.9944,0.0047
15.9972,0.0003
16.0,-0.0161
16.0028,-0.0024
16.0056,0.0028
16.0083,0.0078
16.0111,-0.0037
16.0139,0.002
16.0167,-0.0004
16.0194,-0.0059
16.0222,-0.0122
16.025,-0.0056
16.0278,-0.0129
16.0306,-0.0175
16.0333,-0.01
16.0361,0.0016
16.0389,0.0109
16.0417,0.0154
16.0444,-0.0081
16.0472,0.0132
16.05,-0.0026
16.0528,0.0011
16.0556,-0.0014
16.0583,0.0083
16.0611,0.0056
16.0639,-0.0237
16.0667,-0.0383
16.0694,-0.0349
16.0722,-0.0522
16.075,-0.018
16.0778,-0.0223
16.0806,0.002
16.0833,0.0677
16.0861,0.1766
16.0889,0.2766
16.0917,0.392
16.0944,0.4837
16.0972,0.5762
16.1,0.6343
16.1028,0.6913
16.1056,0.7516
16.1083,0.7575
16.1111,0.7896
16.1139,0.795
16.1167,0.7838
16.1194,0.7369
16.1222,0.6997
16.125,0.6596
16.1278,0.5633
16.1306,0.4842
16.1333,0.3942
16.1361,0.2978
16.1389,0.2166
16.1417,0.0782
16.1444,0.0109
16.1472,-0.0347
16.15,-0.0492
16.1528,-0.0756
16.1556,-0.1093
16.1583,-0.0976
16.1611,-0.1179
16.1639,-0.1153
16.1667,-0.1221
16.1694,-0.0975
16.1722,-0.0824
16.175,-0.0725
16.1778,-0.0655
16.1806,-0.0548
16.1833,-0.0031
16.1861,-0.0035
16.1889,-0.0008
16.1917,-0.0052
16.1944,0.0036
16.1972,-0.0071
16.2,0.0197
16.2028,-0.0187
16.2056,0.0185
16.2083,0.0118
16.2111,0.001
16.2139,0.0101
16.2167,-0.0074
16.2194,0.0052
16.2222,0.0003
16.225,0.0046
16.2278,0.0016
16.2306,0.0071
16.2333,0.0018
16.2361,-0.0063
16.2389,-0.0009
16.2417,-0.0157
16.2444,0.0192
16.2472,-0.002
16.25,0.0131
16.2528,-0.0153
16.2556,-0.0113
16.2583,0.0151
16.2611,-0.0023
16.2639,0.0038
16.2667,0.0059
16.2694,-0.0176
16.2722,0.0072
16.275,0.0009
16.2778,-0.0058
16.2806,-0.013
16.2833,0.0007
16.2861,0.0273
16.2889,-0.0046
16.2917,0.0117
16.2944,0.0039
16.2972,0.047
16.3,0.0302
16.3028,0.027
16.3056,0.0364
16.3083,0.0547
16.3111,0.0458
16.3139,0.049
16.3167,0.0642
16.3194,0.0629
16.3222,0.0704
16.325,0.0919
16.3278,0.0617
16.3306,0.0867
16.3333,0.0855
16.3361,0.1086
16.3389,0.09
16.3417,0.1033
16.3444,0.1248
16.3472,0.1184
16.35,0.1225
16.3528,0.1289
16.3556,0.1396
16.3583,0.1237
16.3611,0.1357
16.3639,0.1318
16.3667,0.1327
16.3694,0.1468
16.3722,0.1544
16.375,0.1343
16.3778,0.1308
16.3806,0.1439
16.3833,0.1378
16.3861,0.1531
16.3889,0.1414
16.3917,0.1473
16.3944,0.152
16.3972,0.1498
16.4,0.1547
16.4028,0.1566
16.4056,0.1486
16.4083,0.1218
16.4111,0.1356
16.4139,0.1485
16.4167,0.1541
16.4194,0.1382
16.4222,0.1408
16.425,0.124
16.4278,0.1231
16.4306,0.1228
16.4333,0.1231
16.4361,0.1238
16.4389,0.1132
16.4417,0.1117
16.4444,0.1005
16.4472,0.0968
16.45,0.0836
16.4528,0.0805
16.4556,0.0836
16.4583,0.0674
16.4611,0.0712
16.4639,0.0621
16.4667,0.0486
16.4694,0.0749
16.4722,0.0526
16.475,0.0334
16.4778,0.0575
16.4806,0.0488
16.4833,0.0209
16.4861,0.0354
16.4889,0.0231
16.4917,0.0156
16.4944,0.0046
16.4972,-0.0004
16.5,0.0056
16.5028,0.0036
16.5056,-0.0057
16.5083,-0.0197
16.5111,-0.0075
16.5139,0.017
16.5167,0.0026
16.5194,0.0053
16.5222,-0.008
16.525,0.0007
16.5278,0.0021
16.5306,0.0154
16.5333,0.0134
16.5361,-0.0134
16.5389,-0.0155
16.5417,0.0126
16.5444,-0.0018
16.5472,-0.0098
16.55,-0.0124
16.5528,0.0021
16.5556,-0.0128
16.5583,0.0032
16.5611,0.0053
16.5639,-0.0061
16.5667,0.0002
16.5694,-0.0008
16.5722,0.0065
16.575,-0.0038
16.5778,-0.0005
16.5806,0.0138
16.5833,0.0206
16.5861,0.0142
16.5889,0.0149
16.5917,-0.0001
16.5944,0.0026
16.5972,0.0199
16.6,-0.0026
16.6028,-0.004
16.6056,0.0043
16.6083,0.0112
16.6111,-0.0074
16.6139,0.0051
16.6167,0.0016
16.6194,-0.0014
16.6222,0.0081
16.625,0.0167
16.6278,-0.0007
16.6306,-0.0045
16.6333,0.006
16.6361,-0.0048
16.6389,-0.0217
16.6417,0.0012
16.6444,-0.0048
16.6472,0.0015
16.65,0.0107
16.6528,0.0013
16.6556,0.0042
16.6583,0.0017
16.6611,-0.0001
16.6639,-0.0051
16.6667,0.0029
16.6694,0.0017
16.6722,-0.0095
16.675,0.003
16.6778,-0.0113
16.6806,0.0158
16.6833,0.0011
16.6861,-0.0046
16.6889,0.0081
16.6917,-0.0238
16.6944,0.0087
16.6972,-0.0182
16.7,0.0031
16.7028,0.0168
16.7056,0.0231
16.7083,0.0
16.7111,-0.0007
16.7139,-0.0042
16.7167,-0.0019
16.7194,0.0085
16.7222,0.0032
16.725,0.0055
16.7278,-0.0061
16.7306,-0.0152
16.7333,0.0111
16.7361,0.0032
16.7389,-0.0069
16.7417,0.0151
16.7444,0.0036
16.7472,0.0066
16.75,0.0011
16.7528,-0.0043
16.7556,0.0075
16.7583,0.0044
16.7611,-0.0196
16.7639,0.0074
16.7667,0.0235
16.7694,-0.0098
16.7722,-0.0096
16.775,-0.0004
16.7778,-0.0207
16.7806,0.0072
16.7833,-0.0122
16.7861,0.0166
16.7889,0.0145
16.7917,0.0071
16.7944,0.0046
16.7972,0.0078
16.8,-0.0004
16.8028,0.0243
16.8056,-0.0098
16.8083,-0.0146
16.8111,-0.0059
16.8139,0.0086
16.8167,-0.0007
16.8194,-0.0107
16.8222,0.0015
16.825,0.0058
16.8278,-0.0092
16.8306,-0.0109
16.8333,-0.0058
16.8361,0.0028
16.8389,-0.011
16.8417,-0.0042
16.8444,-0.0033
16.8472,0.0159
16.85,0.0163
16.8528,-0.007
16.8556,0.0021
16.8583,-0.0038
16.8611,-0.0093
16.8639,0.0068
16.8667,-0.0026
16.8694,-0.0083
16.8722,-0.0091
16.875,0.0229
16.8778,0.0027
16.8806,0.0048
16.8833,0.0032
16.8861,0.005
16.8889,-0.012
16.8917,-0.0126
16.8944,-0.0043
16.8972,0.0002
16.9,0.0089
16.9028,0.003
16.9056,-0.0133
16.9083,0.0074
16.9111,0.0184
16.9139,0.0011
16.9167,0.0043
16.9194,0.0393
16.9222,0.0047
16.925,0.0293
16.9278,0.0419
16.9306,0.0339
16.9333,0.0322
16.9361,0.0426
16.9389,0.0552
16.9417,0.0532
16.9444,0.0604
16.9472,0.0598
16.95,0.0592
16.9528,0.0669
16.9556,0.0673
16.9583,0.0685
16.9611,0.0665
16.9639,0.0643
16.9667,0.071
16.9694,0.0792
16.9722,0.0685
16.975,0.0675
16.9778,0.0712
16.9806,0.0802
16.9833,0.0893
16.9861,0.0983
16.9889,0.0763
16.9917,0.071
16.9944,0.088
16.9972,0.0662
17.0,0.0771
17.0028,0.0819
17.0056,0.0597
17.0083,0.0705
17.0111,0.0777
17.0139,0.0811
17.0167,0.0636
17.0194,0.0412
17.0222,0.0565
17.025,0.0407
17.0278,0.0624
17.0306,0.0481
17.0333,0.0453
17.0361,0.0452
17.0389,0.0373
17.0417,0.0634
17.0444,0.0551
17.0472,0.0405
17.05,0.028
17.0528,0.0392
17.0556,0.0182
17.0583,0.0123
17.0611,0.0147
17.0639,0.0114
17.0667,-0.0167
17.0694,0.0031
17.0722,0.0153
17.075,-0.002
17.0778,-0.0103
17.0806,0.0052
17.0833,-0.0023
17.0861,0.0014
17.0889,0.0014
17.0917,-0.0045
17.0944,0.0084
17.0972,-0.0187
17.1,0.0027
17.1028,-0.0028
17.1056,-0.0067
17.1083,0.0137
17.1111,-0.0035
17.1139,-0.0114
17.1167,0.0055
17.1194,-0.0127
17.1222,0.0073
17.125,0.0051
17.1278,0.0188
17.1306,-0.0004
17.1333,0.0024
17.1361,-0.0104
17.1389,-0.0089
17.1417,0.0174
17.1444,0.0078
17.1472,-0.0102
17.15,-0.0106
17.1528,-0.0199
17.1556,-0.0343
17.1583,-0.0394
17.1611,-0.0496
17.1639,-0.0176
17.1667,-0.0161
17.1694,-0.0188
17.1722,0.0504
17.175,0.1316
17.1778,0.2062
17.1806,0.308
17.1833,0.4025
17.1861,0.4778
17.1889,0.5435
17.1917,0.5964
17.1944,0.6612
17.1972,0.7144
17.2,0.7609
17.2028,0.7836
17.2056,0.7845
17.2083,0.807
17.2111,0.7879
17.2139,0.7755
17.2167,0.7431
17.2194,0.7249
17.2222,0.6681
17.225,0.5853
17.2278,0.5254
17.2306,0.4503
17.2333,0.355
17.2361,0.2823
17.2389,0.1833
17.2417,0.1062
17.2444,0.0004
17.2472,-0.0226
17.25,-0.0524
17.2528,-0.0568
17.2556,-0.0658
17.2583,-0.0922
17.2611,-0.1037
17.2639,-0.1082
17.2667,-0.1158
17.2694,-0.1319
17.2722,-0.1071
17.275,-0.132
17.2778,-0.1068
17.2806,-0.0907
17.2833,-0.0661
17.2861,-0.0422
17.2889,-0.0302
17.2917,0.0022
17.2944,0.0081
17.2972,0.02
17.3,0.01
17.3028,0.0073
17.3056,0.0027
17.3083,-0.0018
17.3111,-0.0147
17.3139,0.0001
17.3167,0.0199
17.3194,-0.0121
17.3222,-0.0056
17.325,-0.0112
17.3278,-0.0007
17.3306,-0.0079
17.3333,0.0101
17.3361,-0.0092
17.3389,-0.0078
17.3417,-0.0026
17.3444,0.007
17.3472,-0.0023
17.35,0.0031
17.3528,0.0078
17.3556,-0.0129
17.3583,0.011
17.3611,-0.0024
17.3639,0.0093
17.3667,0.0123
17.3694,0.013
17.3722,-0.0028
17.375,0.0217
17.3778,0.0122
17.3806,0.0012
17.3833,0.0077
17.3861,0.0083
17.3889,-0.0159
17.3917,-0.0059
17.3944,0.0012
17.3972,0.01
17.4,0.007
17.4028,-0.0068
17.4056,-0.005
17.4083,0.0119
17.4111,0.0078
17.4139,0.0068
17.4167,-0.0045
17.4194,0.0039
17.4222,0.0093
17.425,0.0146
17.4278,0.029
17.4306,0.0356
17.4333,0.0359
17.4361,0.0443
17.4389,0.0468
17.4417,0.0384
17.4444,0.046
17.4472,0.0595
17.45,0.0719
17.4528,0.0723
17.4556,0.0788
17.4583,0.0883
17.4611,0.1012
17.4639,0.1168
17.4667,0.0828
17.4694,0.0998
17.4722,0.0995
17.475,0.1093
17.4778,0.1118
17.4806,0.1179
17.4833,0.1214
17.4861,0.1151
17.4889,0.1089
17.4917,0.1055
17.4944,0.1198
17.4972,0.1276
17.5,0.1546
17.5028,0.128
17.5056,0.1272
17.5083,0.1317
17.5111,0.1475
17.5139,0.1604
17.5167,0.1592
17.5194,0.1472
17.5222,0.145
17.525,0.153
17.5278,0.1577
17.5306,0.1522
17.5333,0.1327
17.5361,0.1558
17.5389,0.1419
17.5417,0.1461
17.5444,0.1618
17.5472,0.1562
17.55,0.1542
17.5528,0.1551
17.5556,0.1307
17.5583,0.1304
17.5611,0.1424
17.5639,0.1383
17.5667,0.1509
17.5694,0.1414
17.5722,0.1473
17.575,0.1151
17.5778,0.1353
17.5806,0.1102
17.5833,0.1305
17.5861,0.1275
17.5889,0.1133
17.5917,0.1101
17.5944,0.1118
17.5972,0.1012
17.6,0.1057
17.6028,0.0984
17.6056,0.079
17.6083,0.0757
17.6111,0.0751
17.6139,0.0926
17.6167,0.0852
17.6194,0.076
17.6222,0.0795
17.625,0.0738
17.6278,0.0591
17.6306,0.0398
17.6333,0.0431
17.6361,0.0356
17.6389,0.04
17.6417,0.0261
17.6444,0.0216
17.6472,0.0333
17.65,0.0298
17.6528,0.0153
17.6556,0.0064
17.6583,-0.0266
17.6611,-0.0026
17.6639,-0.0
17.6667,0.0097
17.6694,0.0029
17.6722,-0.0162
17.675,-0.0107
17.6778,0.0011
17.6806,-0.0059
17.6833,-0.0076
17.6861,0.0097
17.6889,0.0043
17.6917,-0.0067
17.6944,0.0027
17.6972,-0.0033
17.7,0.0007
17.7028,-0.0048
17.7056,0.0095
17.7083,0.016
17.7111,-0.0129
17.7139,-0.0107
17.7167,0.0021
17.7194,-0.009
17.7222,0.017
17.725,0.0078
17.7278,-0.0144
17.7306,0.007
17.7333,0.0013
17.7361,-0.0038
17.7389,0.0159
17.7417,-0.0058
17.7444,-0.0052
17.7472,0.0051
17.75,0.0038
17.7528,-0.0014
17.7556,-0.007
17.7583,-0.0036
17.7611,-0.0157
17.7639,-0.0059
17.7667,0.0166
17.7694,0.0115
17.7722,0.0016
17.775,0.0018
17.7778,-0.0073
17.7806,0.0043
17.7833,0.009
17.7861,0.0014
17.7889,-0.0022
17.7917,0.0023
17.7944,0.0016
17.7972,-0.0018
17.8,-0.0061
17.8028,0.0131
17.8056,0.0051
17.8083,-0.0041
17.8111,0.0084
17.8139,0.0095
17.8167,0.013
17.8194,-0.0112
17.8222,-0.0077
17.825,0.0066
17.8278,0.0108
17.8306,-0.0145
17.8333,-0.0039
17.8361,0.0058
17.8389,-0.0202
17.8417,-0.001
17.8444,-0.0103
17.8472,0.0158
17.85,0.006
17.8528,0.0107
17.8556,-0.0056
17.8583,0.0242
17.8611,-0.0027
17.8639,0.0006
17.8667,-0.0052
17.8694,0.0117
17.8722,0.0147
17.875,0.0229
17.8778,0.0167
17.8806,-0.0128
17.8833,0.0091
17.8861,-0.0118
17.8889,-0.0044
17.8917,0.0022
17.8944,-0.0196
17.8972,-0.0086
17.9,-0.0135
17.9028,0.0081
17.9056,0.0072
17.9083,0.0036
17.9111,-0.0183
17.9139,0.0169
17.9167,-0.0147
17.9194,-0.0045
17.9222,-0.0167
17.925,-0.019
17.9278,0.016
17.9306,-0.0018
17.9333,0.0107
17.9361,0.0031
17.9389,0.0162
17.9417,0.0231
17.9444,0.027
17.9472,-0.0027
17.95,0.0012
17.9528,-0.0005
17.9556,0.0033
17.9583,0.0023
17.9611,0.0002
17.9639,0.0005
17.9667,-0.0032
17.9694,-0.0047
17.9722,-0.0074
17.975,0.0043
17.9778,-0.0136
17.9806,0.0008
17.9833,0.014
17.9861,-0.001
17.9889,0.0111
17.9917,-0.0225
17.9944,-0.0087
17.9972,0.0003
18.0,0.011
18.0028,0.0047
18.0056,-0.0018
18.0083,0.0029
18.0111,0.0017
18.0139,0.0117
18.0167,0.0048
18.0194,0.0037
18.0222,0.0252
18.025,-0.0014
18.0278,-0.0075
18.0306,0.0033
18.0333,0.0084
18.0361,-0.0028
18.0389,-0.005
18.0417,0.0095
18.0444,0.0
18.0472,0.0155
18.05,0.0037
18.0528,0.0028
18.0556,0.0035
18.0583,-0.0016
18.0611,-0.0086
18.0639,-0.0001
18.0667,0.0088
18.0694,0.0009
18.0722,0.0087
18.075,0.005
18.0778,0.0238
18.0806,-0.0008
18.0833,0.0102
18.0861,-0.0185
18.0889,0.0087
18.0917,-0.0131
18.0944,0.0064
18.0972,0.0005
18.1,0.003
18.1028,0.0131
18.1056,-0.0182
18.1083,-0.0073
18.1111,0.0049
18.1139,-0.0093
18.1167,-0.0132
18.1194,-0.0082
18.1222,-0.0091
18.125,0.0047
18.1278,-0.0061
18.1306,0.0055
18.1333,-0.0004
18.1361,0.0245
18.1389,0.0184
18.1417,0.0451
18.1444,0.0175
18.1472,0.0526
18.15,0.0304
18.1528,0.0369
18.1556,0.0386
18.1583,0.0449
18.1611,0.0558
18.1639,0.0689
18.1667,0.057
18.1694,0.0306
18.1722,0.0598
18.175,0.0586
18.1778,0.0657
18.1806,0.0456
18.1833,0.0541
18.1861,0.0816
18.1889,0.0819
18.1917,0.081
18.1944,0.0872
18.1972,0.079
18.2,0.1041
18.2028,0.0516
18.2056,0.0896
18.2083,0.0735
18.2111,0.0788
18.2139,0.0732
18.2167,0.0613
18.2194,0.0844
18.2222,0.0655
18.225,0.0882
18.2278,0.0676
18.2306,0.0924
18.2333,0.0777
18.2361,0.0825
18.2389,0.0759
18.2417,0.0789
18.2444,0.0697
18.2472,0.0734
18.25,0.0577
18.2528,0.0694
18.2556,0.0429
18.2583,0.0597
18.2611,0.0397
18.2639,0.0606
18.2667,0.0422
18.2694,0.064
18.2722,0.0341
18.275,0.0383
18.2778,0.0391
18.2806,0.0262
18.2833,0.0184
18.2861,0.0234
18.2889,0.0374
18.2917,0.0426
18.2944,0.0066
18.2972,0.009
18.3,0.0068
18.3028,-0.0003
18.3056,-0.0025
18.3083,-0.0012
18.3111,-0.0229
18.3139,-0.0085
18.3167,-0.0078
18.3194,0.0132
18.3222,-0.0121
18.325,-0.0149
18.3278,-0.0003
18.3306,0.0056
18.3333,-0.0095
18.3361,0.0094
18.3389,-0.0012
18.3417,0.0064
18.3444,0.0118
18.3472,-0.0131
18.35,-0.004
18.3528,0.0026
18.3556,0.0073
18.3583,-0.0032
18.3611,-0.0129
18.3639,-0.001
18.3667,-0.0197
18.3694,0.0028
18.3722,0.0104
18.375,0.0076
18.3778,-0.0075
18.3806,0.0118
18.3833,-0.0128
18.3861,-0.0254
18.3889,-0.017
18.3917,-0.0327
18.3944,-0.0267
18.3972,-0.045
18.4,-0.0476
18.4028,-0.0313
18.4056,-0.0275
18.4083,0.0059
18.4111,0.0971
18.4139,0.1865
18.4167,0.2631
18.4194,0.3382
18.4222,0.4391
18.425,0.5225
18.4278,0.5705
18.4306,0.6295
18.4333,0.6935
18.4361,0.7273
18.4389,0.7665
18.4417,0.7791
18.4444,0.7977
18.4472,0.795
18.45,0.7871
18.4528,0.7723
18.4556,0.7439
18.4583,0.6847
18.4611,0.6557
18.4639,0.6111
18.4667,0.5548
18.4694,0.4547
18.4722,0.3946
18.475,0.3025
18.4778,0.2344
18.4806,0.1088
18.4833,0.0393
18.4861,-0.0112
18.4889,-0.0221
18.4917,-0.0451
18.4944,-0.0813
18.4972,-0.0821
18.5,-0.1043
18.5028,-0.1158
18.5056,-0.1102
18.5083,-0.1235
18.5111,-0.1211
18.5139,-0.1178
18.5167,-0.102
18.5194,-0.0889
18.5222,-0.1126
18.525,-0.0643
18.5278,-0.0644
18.5306,-0.0081
18.5333,-0.0052
18.5361,-0.0022
18.5389,-0.0043
18.5417,0.0057
18.5444,-0.0011
18.5472,0.0046
18.55,-0.0107
18.5528,-0.0042
18.5556,-0.008
18.5583,0.0044
18.5611,-0.0152
18.5639,-0.0045
18.5667,0.0168
18.5694,-0.009
18.5722,0.0088
18.575,0.0092
18.5778,0.004
18.5806,-0.0016
18.5833,-0.0079
18.5861,-0.0174
18.5889,-0.0049
18.5917,0.008
18.5944,-0.0026
18.5972,-0.0116
18.6,-0.0009
18.6028,0.015
18.6056,0.0015
18.6083,-0.0175
18.6111,0.0026
18.6139,0.0137
18.6167,-0.0001
18.6194,-0.0075
18.6222,0.0058
18.625,0.001
18.6278,-0.012
18.6306,0.0143
18.6333,-0.0013
18.6361,-0.0228
18.6389,-0.0077
18.6417,0.0054
18.6444,0.0059
18.6472,-0.0073
18.65,0.0166
18.6528,0.0073
18.6556,-0.0005
18.6583,0.0095
18.6611,-0.0009
18.6639,0.0066
18.6667,-0.0009
18.6694,0.005
18.6722,0.033
18.675,0.0339
18.6778,0.0325
18.6806,0.0265
18.6833,0.0389
18.6861,0.0275
18.6889,0.0483
18.6917,0.0558
18.6944,0.0625
18.6972,0.0575
18.7,0.0733
18.7028,0.0678
18.7056,0.0698
18.7083,0.0755
18.7111,0.0803
18.7139,0.0984
18.7167,0.0843
18.7194,0.0918
18.7222,0.0994
18.725,0.099
18.7278,0.09
18.7306,0.0984
18.7333,0.1114
18.7361,0.1077
18.7389,0.1231
18.7417,0.1427
18.7444,0.1289
18.7472,0.1282
18.75,0.1153
18.7528,0.1271
18.7556,0.142
18.7583,0.1297
18.7611,0.1441
18.7639,0.1264
18.7667,0.1368
18.7694,0.1644
18.7722,0.1352
18.775,0.1569
18.7778,0.1439
18.7806,0.1438
18.7833,0.1353
18.7861,0.1518
18.7889,0.1463
18.7917,0.1527
18.7944,0.1417
18.7972,0.1421
18.8,0.1401
18.8028,0.1384
18.8056,0.1452
18.8083,0.1545
18.8111,0.1405
18.8139,0.1523
18.8167,0.1342
18.8194,0.1239
18.8222,0.1307
18.825,0.13
18.8278,0.1311
18.8306,0.1187
18.8333,0.1232
18.8361,0.1326
18.8389,0.1188
18.8417,0.1201
18.8444,0.1212
18.8472,0.1281
18.85,0.1011
18.8528,0.1052
18.8556,0.091
18.8583,0.0835
18.8611,0.0957
18.8639,0.0959
18.8667,0.0967
18.8694,0.0654
18.8722,0.0518
18.875,0.0768
18.8778,0.071
18.8806,0.0765
18.8833,0.0552
18.8861,0.054
18.8889,0.0614
18.8917,0.0453
18.8944,0.051
18.8972,0.0277
18.9,0.0391
18.9028,0.026
18.9056,0.0407
18.9083,0.015
18.9111,0.0218
18.9139,0.0063
18.9167,0.0152
18.9194,0.012
18.9222,-0.0072
18.925,0.0005
18.9278,-0.003
18.9306,-0.0033
18.9333,0.0069
18.9361,0.0106
18.9389,0.0162
18.9417,-0.0045
18.9444,0.0023
18.9472,-0.0092
18.95,0.0051
18.9528,-0.0167
18.9556,-0.0109
18.9583,-0.0083
18.9611,-0.0086
18.9639,-0.0148
18.9667,0.0129
18.9694,-0.002
18.9722,0.0118
18.975,0.0032
18.9778,0.0019
18.9806,-0.0047
18.9833,-0.003
18.9861,-0.0039
18.9889,0.007
18.9917,-0.0146
18.9944,-0.0226
18.9972,0.0032
19.0,-0.0194
19.0028,-0.0014
19.0056,-0.0036
19.0083,0.0111
19.0111,0.0106
19.0139,-0.0011
19.0167,0.005
19.0194,0.002
19.0222,0.0085
19.025,-0.0159
19.0278,0.0157
19.0306,-0.0015
19.0333,0.0103
19.0361,0.0049
19.0389,-0.0022
19.0417,-0.0091
19.0444,0.0063
19.0472,0.0019
19.05,-0.0196
19.0528,-0.0177
19.0556,0.0143
19.0583,-0.0048
19.0611,0.0045
19.0639,-0.0308
19.0667,-0.0087
19.0694,0.0025
19.0722,-0.0135
19.075,-0.0077
19.0778,-0.0093
19.0806,-0.0065
19.0833,-0.0081
19.0861,0.0106
19.0889,-0.0096
19.0917,0.0045
19.0944,0.0019
19.0972,-0.0076
19.1,-0.0048
19.1028,0.0134
19.1056,-0.0076
19.1083,0.0142
19.1111,-0.0216
19.1139,0.0204
19.1167,0.0119
19.1194,-0.0068
19.1222,0.0045
19.125,0.0151
19.1278,-0.0151
19.1306,-0.0025
19.1333,-0.0032
19.1361,-0.004
19.1389,-0.0062
19.1417,0.0056
19.1444,0.0026
19.1472,-0.0029
19.15,0.0002
19.1528,-0.0085
19.1556,-0.0071
19.1583,0.0195
19.1611,0.0076
19.1639,-0.0103
19.1667,-0.0027
19.1694,0.0063
19.1722,0.0115
19.175,0.0105
19.1778,-0.0138
19.1806,-0.009
19.1833,0.0109
19.1861,-0.0058
19.1889,-0.0084
19.1917,0.0094
19.1944,0.0066
19.1972,-0.0148
19.2,-0.0189
19.2028,-0.0019
19.2056,0.0112
19.2083,-0.014
19.2111,-0.0108
19.2139,-0.0228
19.2167,-0.0042
19.2194,0.0089
19.2222,0.0004
19.225,-0.0042
19.2278,-0.0007
19.2306,-0.0176
19.2333,-0.0066
19.2361,0.0121
19.2389,0.0065
19.2417,-0.0047
19.2444,0.009
19.2472,-0.0031
19.25,0.0038
19.2528,-0.0106
19.2556,-0.0081
19.2583,-0.0064
19.2611,0.0002
19.2639,0.0022
19.2667,0.007
19.2694,-0.0071
19.2722,0.0089
19.275,-0.004
19.2778,0.0035
19.2806,0.002
19.2833,0.011
19.2861,0.0104
19.2889,0.0028
19.2917,-0.022
19.2944,0.0156
19.2972,0.0148
19.3,0.0077
19.3028,0.0036
19.3056,-0.0035
19.3083,-0.0046
19.3111,0.0051
19.3139,0.0114
19.3167,0.0065
19.3194,0.0062
19.3222,-0.0012
19.325,0.0121
19.3278,0.0029
19.3306,0.0014
19.3333,0.0127
19.3361,-0.0169
19.3389,0.003
19.3417,0.0061
19.3444,0.0207
19.3472,0.0063
19.35,-0.0011
19.3528,-0.0072
19.3556,-0.0073
19.3583,0.0018
19.3611,-0.0098
19.3639,-0.0098
19.3667,0.0041
19.3694,-0.0104
19.3722,0.0093
19.375,0.0049
19.3778,0.0071
19.3806,0.001
19.3833,0.0004
19.3861,0.0056
19.3889,-0.0117
19.3917,-0.0111
19.3944,0.0082
19.3972,-0.0094
19.4,-0.0012
19.4028,-0.0056
19.4056,-0.0106
19.4083,-0.005
19.4111,0.0078
19.4139,0.0036
19.4167,0.0032
19.4194,0.0068
19.4222,0.0044
19.425,0.031
19.4278,0.0123
19.4306,0.0191
19.4333,0.051
19.4361,0.0431
19.4389,0.0396
19.4417,0.0363
19.4444,0.0573
19.4472,0.0574
19.45,0.0517
19.4528,0.0575
19.4556,0.0585
19.4583,0.0676
19.4611,0.0667
19.4639,0.0795
19.4667,0.0649
19.4694,0.0812
19.4722,0.0777
19.475,0.059
19.4778,0.0729
19.4806,0.072
19.4833,0.0897
19.4861,0.0765
19.4889,0.0916
19.4917,0.0881
19.4944,0.0798
19.4972,0.0796
19.5,0.0787
19.5028,0.0859
19.5056,0.0898
19.5083,0.0754
19.5111,0.0714
19.5139,0.0725
19.5167,0.0857
19.5194,0.088
19.5222,0.0797
19.525,0.0634
19.5278,0.0382
19.5306,0.0547
19.5333,0.0659
19.5361,0.0597
19.5389,0.0455
19.5417,0.0607
19.5444,0.0405
19.5472,0.0547
19.55,0.0319
19.5528,0.0262
19.5556,0.0566
19.5583,0.027
19.5611,0.0326
19.5639,0.0322
19.5667,0.0208
19.5694,0.0292
19.5722,0.0035
19.575,0.009
19.5778,0.0005
19.5806,-0.0131
19.5833,0.0022
19.5861,-0.0156
19.5889,0.0139
19.5917,0.0092
19.5944,0.0087
19.5972,0.0061
19.6,0.0
19.6028,0.0053
19.6056,0.0147
19.6083,-0.0037
19.6111,-0.0185
19.6139,0.0058
19.6167,-0.0109
19.6194,0.0107
19.6222,-0.0004
19.625,0.0099
19.6278,0.0141
19.6306,-0.0049
19.6333,0.0076
19.6361,0.0056
19.6389,-0.0175
19.6417,-0.0074
19.6444,0.004
19.6472,0.0023
19.65,-0.0096
19.6528,0.0114
19.6556,-0.0001
19.6583,0.0137
19.6611,0.0068
19.6639,-0.0031
19.6667,-0.0259
19.6694,-0.0334
19.6722,-0.0438
19.675,-0.0333
19.6778,-0.0483
19.6806,-0.0095
19.6833,-0.0317
19.6861,-0.0184
19.6889,0.0005
19.6917,0.0992
19.6944,0.2003
19.6972,0.2781
19.7,0.3619
19.7028,0.4302
19.7056,0.516
19.7083,0.5764
19.7111,0.6345
19.7139,0.6735
19.7167,0.7282
19.7194,0.7583
19.7222,0.8041
19.725,0.7983
19.7278,0.8015
19.7306,0.7816
19.7333,0.7725
19.7361,0.7449
19.7389,0.7077
19.7417,0.6562
19.7444,0.6194
19.7472,0.5464
19.75,0.4928
19.7528,0.433
19.7556,0.3296
19.7583,0.252
19.7611,0.1727
19.7639,0.0663
19.7667,-0.028
19.7694,-0.0184
19.7722,-0.0565
19.775,-0.0452
19.7778,-0.0637
19.7806,-0.0991
19.7833,-0.1027
19.7861,-0.1026
19.7889,-0.1134
19.7917,-0.1309
19.7944,-0.1044
19.7972,-0.1218
19.8,-0.0875
19.8028,-0.1046
19.8056,-0.0906
19.8083,-0.0733
19.8111,-0.0412
19.8139,-0.0276
19.8167,-0.0068
19.8194,-0.0135
19.8222,0.009
19.825,-0.0233
19.8278,0.0006
19.8306,-0.0045
19.8333,-0.0022
19.8361,0.0074
19.8389,-0.0056
19.8417,-0.0052
19.8444,0.0024
19.8472,0.0182
19.85,0.0081
19.8528,-0.0167
19.8556,0.0103
19.8583,0.0228
19.8611,-0.0014
19.8639,0.0044
19.8667,-0.0024
19.8694,0.0074
19.8722,-0.0037
19.875,-0.0048
19.8778,0.0049
19.8806,-0.0058
19.8833,-0.0056
19.8861,0.0073
19.8889,-0.0189
19.8917,-0.0055
19.8944,-0.0081
19.8972,0.0053
19.9,-0.0009
19.9028,-0.0126
19.9056,-0.0194
19.9083,0.0115
19.9111,0.0032
19.9139,0.005
19.9167,0.0048
19.9194,-0.0153
19.9222,0.0025
19.925,-0.0038
19.9278,-0.0247
19.9306,0.0089
19.9333,-0.0051
19.9361,0.0071
19.9389,0.0048
19.9417,0.0023
19.9444,0.0245
19.9472,-0.0111
19.95,0.0098
19.9528,0.0189
19.9556,-0.0021
19.9583,0.0225
19.9611,0.0371
19.9639,0.0074
19.9667,0.035
19.9694,0.034
19.9722,0.0579
19.975,0.0453
19.9778,0.0495
19.9806,0.0621
19.9833,0.0633
19.9861,0.0764
19.9889,0.0713
19.9917,0.0938
19.9944,0.0816
19.9972,0.0784
20.0,0.0935
20.0028,0.0843
20.0056,0.0881
20.0083,0.094
20.0111,0.0955
20.0139,0.0985
20.0167,0.1202
20.0194,0.1107
20.0222,0.118
20.025,0.1099
20.0278,0.1384
20.0306,0.1234
20.0333,0.1295
20.0361,0.1372
20.0389,0.1456
20.0417,0.1308
20.0444,0.1447
20.0472,0.1515
20.05,0.1346
20.0528,0.1311
20.0556,0.1458
20.0583,0.1579
20.0611,0.1466
20.0639,0.1468
20.0667,0.1469
20.0694,0.1471
20.0722,0.1535
20.075,0.1543
20.0778,0.1453
20.0806,0.1306
20.0833,0.1371
20.0861,0.1523
20.0889,0.1532
20.0917,0.1385
20.0944,0.1409
20.0972,0.1503
20.1,0.1426
20.1028,0.155
20.1056,0.1369
20.1083,0.1409
20.1111,0.1314
20.1139,0.1283
20.1167,0.1442
20.1194,0.1289
20.1222,0.1265
20.125,0.1209
20.1278,0.1209
20.1306,0.1039
20.1333,0.126
20.1361,0.1214
20.1389,0.1035
20.1417,0.1188
20.1444,0.0968
20.1472,0.0984
20.15,0.0911
20.1528,0.0978
20.1556,0.0775
20.1583,0.0818
20.1611,0.0747
20.1639,0.0638
20.1667,0.0616
20.1694,0.0767
20.1722,0.0653
20.175,0.0668
20.1778,0.0631
20.1806,0.0438
20.1833,0.0425
20.1861,0.0415
20.1889,0.0304
20.1917,0.0304
20.1944,0.0234
20.1972,0.0149
20.2,0.0087
20.2028,-0.0027
20.2056,-0.0128
20.2083,0.0097
20.2111,-0.0012
20.2139,-0.0011
20.2167,-0.007
20.2194,-0.004
20.2222,0.0097
20.225,-0.0118
20.2278,0.0132
20.2306,-0.0031
20.2333,0.0163
20.2361,0.0203
20.2389,0.0038
20.2417,-0.0058
20.2444,0.0031
20.2472,-0.0071
20.25,0.0037
20.2528,-0.0182
20.2556,0.0027
20.2583,-0.0017
20.2611,0.0146
20.2639,-0.0097
20.2667,-0.004
20.2694,0.0024
20.2722,0.0042
20.275,0.0166
20.2778,-0.0113
20.2806,-0.0064
20.2833,-0.0091
20.2861,0.0025
20.2889,-0.0037
20.2917,0.0007
20.2944,-0.0021
20.2972,-0.0108
20.3,-0.0067
20.3028,-0.004
20.3056,0.0149
20.3083,-0.0057
20.3111,-0.0097
20.3139,0.0035
20.3167,-0.0111
20.3194,-0.006
20.3222,0.0009
20.325,0.0055
20.3278,-0.0018
20.3306,0.0042
20.3333,0.0025
20.3361,-0.0046
20.3389,0.0073
20.3417,-0.0127
20.3444,-0.0062
20.3472,-0.0043
20.35,-0.0027
20.3528,-0.0216
20.3556,0.0132
20.3583,-0.0023
20.3611,0.0063
20.3639,-0.0005
20.3667,0.0049
20.3694,0.0019
20.3722,-0.0027
20.375,-0.0066
20.3778,0.0065
20.3806,0.0094
20.3833,0.0064
20.3861,-0.0008
20.3889,-0.0016
20.3917,0.0038
20.3944,-0.0043
20.3972,0.0028
20.4,0.0151
20.4028,-0.0061
20.4056,-0.0074
20.4083,0.0151
20.4111,-0.0047
20.4139,0.0075
20.4167,-0.0031
20.4194,-0.0068
20.4222,0.0098
20.425,-0.0261
20.4278,0.0063
20.4306,-0.0058
20.4333,0.0008
20.4361,-0.026
20.4389,0.0089
20.4417,-0.0126
20.4444,0.0121
20.4472,0.0057
20.45,0.0047
20.4528,0.0104
20.4556,0.0152
20.4583,0.0015
20.4611,-0.0122
20.4639,0.0151
20.4667,0.0043
20.4694,0.0002
20.4722,-0.0113
20.475,0.0045
20.4778,-0.0006
20.4806,0.0002
20.4833,-0.0263
20.4861,0.0131
20.4889,0.0081
20.4917,-0.0027
20.4944,-0.0012
20.4972,0.0029
20.5,-0.0076
20.5028,-0.0049
20.5056,0.011
20.5083,-0.0156
20.5111,-0.005
20.5139,0.0053
20.5167,0.0049
20.5194,-0.0164
20.5222,-0.0033
20.525,-0.0142
20.5278,0.0055
20.5306,-0.001
20.5333,-0.0062
20.5361,-0.015
20.5389,-0.0043
20.5417,-0.0133
20.5444,-0.0125
20.5472,-0.0137
20.55,0.005
20.5528,0.0118
20.5556,-0.0054
20.5583,-0.0093
20.5611,0.0079
20.5639,-0.0037
20.5667,-0.0033
20.5694,-0.0235
20.5722,0.0042
20.575,0.0032
20.5778,-0.0036
20.5806,-0.0059
20.5833,-0.0159
20.5861,-0.008
20.5889,-0.0016
20.5917,0.0138
20.5944,-0.0114
20.5972,-0.0098
20.6,-0.0203
20.6028,0.009
20.6056,-0.0103
20.6083,-0.0175
20.6111,-0.0035
20.6139,-0.0205
20.6167,-0.0077
20.6194,0.0193
20.6222,-0.0089
20.625,-0.0105
20.6278,-0.0037
20.6306,-0.006
20.6333,0.0034
20.6361,-0.0111
20.6389,-0.0073
20.6417,-0.0056
20.6444,-0.0038
20.6472,-0.0013
20.65,-0.0151
20.6528,-0.0033
20.6556,-0.0004
20.6583,-0.0142
20.6611,0.0091
20.6639,0.0088
20.6667,-0.0039
20.6694,0.0041
20.6722,0.017
20.675,-0.0244
20.6778,-0.029
20.6806,0.0102
20.6833,-0.0133
20.6861,-0.0007
20.6889,0.012
20.6917,0.0001
20.6944,-0.0149
20.6972,-0.007
20.7,0.0081
20.7028,0.0129
20.7056,0.0102
20.7083,0.0149
20.7111,0.0237
20.7139,0.0182
20.7167,0.0459
20.7194,0.0426
20.7222,0.023
20.725,0.0158
20.7278,0.055
20.7306,0.0498
20.7333,0.0557
20.7361,0.0583
20.7389,0.0489
20.7417,0.0661
20.7444,0.0564
20.7472,0.0479
20.75,0.0765
20.7528,0.0677
20.7556,0.0808
20.7583,0.0598
20.7611,0.0911
20.7639,0.0595
20.7667,0.0763
20.7694,0.0542
20.7722,0.0696
20.775,0.0838
20.7778,0.0703
20.7806,0.0801
20.7833,0.0766
20.7861,0.081
20.7889,0.0807
20.7917,0.0854
20.7944,0.0858
20.7972,0.0739
20.8,0.0872
20.8028,0.0744
20.8056,0.0672
20.8083,0.0797
20.8111,0.063
20.8139,0.0764
20.8167,0.0738
20.8194,0.0558
20.8222,0.0733
20.825,0.0534
20.8278,0.0504
20.8306,0.0372
20.8333,0.0495
20.8361,0.0516
20.8389,0.0568
20.8417,0.0429
20.8444,0.0512
20.8472,0.0272
20.85,0.0432
20.8528,0.0194
20.8556,0.0306
20.8583,0.008
20.8611,0.034
20.8639,0.0202
20.8667,0.0143
20.8694,0.01
20.8722,0.0324
20.875,0.0029
20.8778,0.0215
20.8806,0.0148
20.8833,0.0019
20.8861,0.0006
20.8889,0.0045
20.8917,0.0006
20.8944,0.0137
20.8972,0.0068
20.9,0.0009
20.9028,0.0037
20.9056,0.0025
20.9083,0.0027
20.9111,-0.0005
20.9139,-0.0148
20.9167,0.0143
20.9194,0.0041
20.9222,0.0088
20.925,-0.0039
20.9278,-0.0013
20.9306,0.001
20.9333,0.0099
20.9361,0.0034
20.9389,-0.0006
20.9417,0.0046
20.9444,0.0101
20.9472,-0.0111
20.95,-0.008
20.9528,0.0057
20.9556,-0.0115
20.9583,-0.039
20.9611,-0.0203
20.9639,-0.0468
20.9667,-0.0462
20.9694,-0.038
20.9722,-0.022
20.975,-0.0167
20.9778,0.0023
20.9806,0.0626
20.9833,0.1409
20.9861,0.252
20.9889,0.3219
20.9917,0.4109
20.9944,0.4878
20.9972,0.5371
21.0,0.6141
21.0028,0.6612
21.0056,0.6919
21.0083,0.76
21.0111,0.7956
21.0139,0.7994
21.0167,0.7897
21.0194,0.7935
21.0222,0.7951
21.025,0.7503
21.0278,0.7264
21.0306,0.6635
21.0333,0.6359
21.0361,0.5773
21.0389,0.4954
21.0417,0.4417
21.0444,0.3471
21.0472,0.2882
21.05,0.1833
21.0528,0.0837
21.0556,0.0234
21.0583,-0.0199
21.0611,-0.0418
21.0639,-0.0583
21.0667,-0.0783
21.0694,-0.0812
21.0722,-0.0933
21.075,-0.1147
21.0778,-0.1133
21.0806,-0.1378
21.0833,-0.1223
21.0861,-0.0972
21.0889,-0.1111
21.0917,-0.1002
21.0944,-0.0706
21.0972,-0.0634
21.1,-0.0638
21.1028,-0.037
21.1056,-0.0121
21.1083,-0.0144
21.1111,0.0189
21.1139,0.0128
21.1167,-0.0109
21.1194,-0.0057
21.1222,-0.0012
21.125,-0.0159
21.1278,0.0123
21.1306,0.0005
21.1333,0.0168
21.1361,0.0026
21.1389,-0.0013
21.1417,-0.0013
21.1444,0.006
21.1472,-0.0077
21.15,0.0062
21.1528,-0.0025
21.1556,0.009
21.1583,0.0022
21.1611,-0.0078
21.1639,0.0083
21.1667,-0.0046
21.1694,-0.0027
21.1722,0.0008
21.175,-0.0034
21.1778,0.0102
21.1806,-0.0048
21.1833,0.0032
21.1861,-0.002
21.1889,-0.0033
21.1917,-0.0057
21.1944,-0.0032
21.1972,-0.0044
21.2,-0.0052
21.2028,-0.0036
21.2056,-0.0058
21.2083,0.0045
21.2111,-0.0006
21.2139,-0.0004
21.2167,-0.0034
21.2194,-0.0069
21.2222,0.0135
21.225,0.0086
21.2278,-0.0086
21.2306,-0.0082
21.2333,0.0052
21.2361,0.013
21.2389,0.015
21.2417,0.0079
21.2444,0.019
21.2472,0.0139
21.25,0.0133
21.2528,0.0188
21.2556,0.0362
21.2583,0.0362
21.2611,0.047
21.2639,0.0466
21.2667,0.0694
21.2694,0.0643
21.2722,0.0535
21.275,0.0795
21.2778,0.0639
21.2806,0.0753
21.2833,0.0659
21.2861,0.1317
21.2889,0.0787
21.2917,0.0821
21.2944,0.0897
21.2972,0.1164
21.3,0.0978
21.3028,0.0935
21.3056,0.1089
21.3083,0.1394
21.3111,0.1069
21.3139,0.1142
21.3167,0.1437
21.3194,0.1185
21.3222,0.1526
21.325,0.156
21.3278,0.1354
21.3306,0.1457
21.3333,0.1383
21.3361,0.1346
21.3389,0.1373
21.3417,0.1432
21.3444,0.1535
21.3472,0.1351
21.35,0.1463
21.3528,0.1451
21.3556,0.158
21.3583,0.1746
21.3611,0.1591
21.3639,0.1366
21.3667,0.1567
21.3694,0.163
21.3722,0.1358
21.375,0.1625
21.3778,0.1329
21.3806,0.1307
21.3833,0.1754
21.3861,0.1392
21.3889,0.1453
21.3917,0.1274
21.3944,0.1482
21.3972,0.1395
21.4,0.1457
21.4028,0.143
21.4056,0.1237
21.4083,0.1249
21.4111,0.1298
21.4139,0.1361
21.4167,0.1126
21.4194,0.1023
21.4222,0.1181
21.425,0.1209
21.4278,0.1117
21.4306,0.1026
21.4333,0.0887
21.4361,0.0871
21.4389,0.0889
21.4417,0.0716
21.4444,0.0683
21.4472,0.0719
21.45,0.0692
21.4528,0.0658
21.4556,0.0733
21.4583,0.0662
21.4611,0.0544
21.4639,0.0435
21.4667,0.0697
21.4694,0.025
21.4722,0.0269
21.475,0.0367
21.4778,0.022
21.4806,0.0033
21.4833,0.0466
21.4861,0.0237
21.4889,-0.0068
21.4917,-0.0108
21.4944,0.0134
21.4972,0.0125
21.5,0.0025
21.5028,-0.008
21.5056,0.0051
21.5083,0.0115
21.5111,-0.0041
21.5139,-0.009
21.5167,0.0019
21.5194,0.0167
21.5222,0.0021
21.525,-0.0019
21.5278,0.0195
21.5306,-0.0077
21.5333,-0.0046
21.5361,0.0055
21.5389,-0.015
21.5417,0.0064
21.5444,-0.021
21.5472,0.0059
21.55,0.0071
21.5528,-0.0113
21.5556,-0.005
21.5583,0.0141
21.5611,0.0055
21.5639,-0.0148
21.5667,0.0071
21.5694,-0.0089
21.5722,0.0023
21.575,-0.0236
21.5778,-0.0072
21.5806,0.007
21.5833,-0.0203
21.5861,0.0035
21.5889,0.0088
21.5917,0.003
21.5944,0.0049
21.5972,-0.0086
21.6,-0.0012
21.6028,-0.0011
21.6056,-0.004
21.6083,-0.0136
21.6111,-0.0022
21.6139,0.0007
21.6167,0.0062
21.6194,0.0031
21.6222,-0.0124
21.625,-0.0105
21.6278,0.005
21.6306,0.004
21.6333,-0.0024
21.6361,-0.016
21.6389,0.0085
21.6417,-0.0009
21.6444,0.0027
21.6472,0.0024
21.65,0.0087
21.6528,-0.0016
21.6556,0.0034
21.6583,0.0042
21.6611,-0.0121
21.6639,-0.0019
21.6667,0.0151
21.6694,-0.0048
21.6722,0.0224
21.675,-0.0103
21.6778,0.0091
21.6806,-0.0104
21.6833,-0.0048
21.6861,0.009
21.6889,0.009
21.6917,0.0224
21.6944,-0.0023
21.6972,-0.0009
21.7,-0.0167
21.7028,0.0034
21.7056,-0.0089
21.7083,0.0097
21.7111,-0.0066
21.7139,0.0109
21.7167,-0.0079
21.7194,-0.0056
21.7222,0.0123
21.725,-0.0186
21.7278,-0.0056
21.7306,0.0006
21.7333,0.0116
21.7361,-0.0045
21.7389,-0.0048
21.7417,-0.001
21.7444,0.0165
21.7472,-0.0111
21.75,-0.0039
21.7528,-0.0011
21.7556,-0.0049
21.7583,-0.0269
21.7611,0.0138
21.7639,-0.0056
21.7667,0.003
21.7694,-0.0078
21.7722,0.0047
21.775,-0.0057
21.7778,-0.0128
21.7806,-0.0101
21.7833,0.0103
21.7861,0.0002
21.7889,0.0185
21.7917,-0.004
21.7944,0.0075
21.7972,0.0145
21.8,-0.011
21.8028,0.0081
21.8056,0.0017
21.8083,-0.0069
21.8111,0.0011
21.8139,0.0161
21.8167,-0.0025
21.8194,-0.0121
21.8222,-0.0264
21.825,0.0226
21.8278,0.0006
21.8306,-0.0085
21.8333,-0.0103
21.8361,-0.0105
21.8389,0.0035
21.8417,-0.0008
21.8444,-0.0081
21.8472,0.0072
21.85,-0.0078
21.8528,0.0064
21.8556,-0.0064
21.8583,-0.0036
21.8611,-0.0139
21.8639,0.0055
21.8667,0.0146
21.8694,-0.0125
21.8722,-0.0103
21.875,-0.0
21.8778,-0.0093
21.8806,-0.0044
21.8833,0.002
21.8861,0.0018
21.8889,0.0172
21.8917,-0.0055
21.8944,-0.0093
21.8972,-0.0105
21.9,-0.0094
21.9028,0.0179
21.9056,-0.0106
21.9083,-0.0004
21.9111,0.0088
21.9139,0.0036
21.9167,-0.0111
21.9194,-0.0249
21.9222,0.0165
21.925,-0.0029
21.9278,0.0102
21.9306,0.001
21.9333,0.0049
21.9361,0.0188
21.9389,-0.0038
21.9417,-0.0019
21.9444,0.0085
21.9472,0.0022
21.95,0.0185
21.9528,0.0193
21.9556,-0.0054
21.9583,-0.0164
21.9611,0.0067
21.9639,-0.0102
21.9667,-0.0095
21.9694,-0.0121
21.9722,-0.0
21.975,-0.0059
21.9778,-0.0049
21.9806,0.0194
21.9833,0.0159
21.9861,0.0044
21.9889,0.046
21.9917,0.0305
21.9944,0.0262
21.9972,0.0438
22.0,0.051
22.0028,0.0458
22.0056,0.0389
22.0083,0.0466
22.0111,0.0556
22.0139,0.0593
22.0167,0.0621
22.0194,0.0619
22.0222,0.0668
22.025,0.0675
22.0278,0.0559
22.0306,0.0735
22.0333,0.0725
22.0361,0.0661
22.0389,0.0699
22.0417,0.0803
22.0444,0.0693
22.0472,0.0663
22.05,0.0762
22.0528,0.0891
22.0556,0.0967
22.0583,0.0813
22.0611,0.0982
22.0639,0.0725
22.0667,0.0649
22.0694,0.0721
22.0722,0.0874
22.075,0.0791
22.0778,0.0899
22.0806,0.0897
22.0833,0.0767
22.0861,0.0817
22.0889,0.0564
22.0917,0.0675
22.0944,0.0683
22.0972,0.0568
22.1,0.0602
22.1028,0.0509
22.1056,0.0325
22.1083,0.0476
22.1111,0.0416
22.1139,0.0525
22.1167,0.0379
22.1194,0.029
22.1222,0.0146
22.125,0.0312
22.1278,0.0312
22.1306,0.0272
22.1333,0.0223
22.1361,0.0134
22.1389,0.0016
22.1417,-0.0003
22.1444,0.0061
22.1472,0.0021
22.15,0.0261
22.1528,-0.0
22.1556,0.0094
22.1583,0.0039
22.1611,0.0068
22.1639,0.0127
22.1667,-0.0106
22.1694,-0.006
22.1722,-0.0162
22.175,-0.0016
22.1778,0.0056
22.1806,0.009
22.1833,0.0027
22.1861,-0.0041
22.1889,-0.0012
22.1917,0.0117
22.1944,0.0054
22.1972,-0.0172
22.2,-0.003
22.2028,0.0207
22.2056,0.0045
22.2083,-0.008
22.2111,-0.0075
22.2139,0.0155
22.2167,0.0016
22.2194,0.0203
22.2222,-0.0112
22.225,-0.0195
22.2278,-0.0293
22.2306,-0.036
22.2333,-0.0489
22.2361,-0.0408
22.2389,-0.0365
22.2417,-0.0128
22.2444,-0.0194
22.2472,0.0045
22.25,0.0965
22.2528,0.1859
22.2556,0.2663
22.2583,0.3587
22.2611,0.449
22.2639,0.5235
22.2667,0.5983
22.2694,0.6342
22.2722,0.6981
22.275,0.7154
22.2778,0.7574
22.2806,0.79
22.2833,0.7981
22.2861,0.7801
22.2889,0.782
22.2917,0.7561
22.2944,0.7313
22.2972,0.6944
22.3,0.636
22.3028,0.5726
22.3056,0.4872
22.3083,0.4049
22.3111,0.3351
22.3139,0.26
22.3167,0.1617
22.3194,0.0542
22.3222,-0.0093
22.325,-0.0248
22.3278,-0.0467
22.3306,-0.0646
22.3333,-0.0846
22.3361,-0.0904
22.3389,-0.1034
22.3417,-0.1139
22.3444,-0.0915
22.3472,-0.128
22.35,-0.1154
22.3528,-0.1228
22.3556,-0.0971
22.3583,-0.0883
22.3611,-0.0628
22.3639,-0.0478
22.3667,-0.0284
22.3694,-0.0064
22.3722,-0.0082
22.375,-0.0101
22.3778,0.0054
22.3806,-0.0033
22.3833,0.0147
22.3861,-0.002
22.3889,-0.0118
22.3917,-0.0026
22.3944,-0.0011
22.3972,-0.0044
22.4,-0.0069
22.4028,-0.0013
22.4056,0.0002
22.4083,0.0093
22.4111,0.0112
22.4139,-0.0043
22.4167,0.011
22.4194,-0.0124
22.4222,0.0086
22.425,-0.0003
22.4278,-0.0021
22.4306,-0.0106
22.4333,-0.0066
22.4361,0.008
22.4389,0.0017
22.4417,-0.0016
22.4444,0.0002
22.4472,0.0158
22.45,-0.0094
22.4528,0.0101
22.4556,0.0021
22.4583,-0.0025
22.4611,0.0067
22.4639,-0.0048
22.4667,0.0057
22.4694,0.0089
22.4722,-0.0098
22.475,0.0048
22.4778,-0.0059
22.4806,0.004
22.4833,-0.0197
22.4861,-0.0014
22.4889,0.0063
22.4917,0.0106
22.4944,0.0089
22.4972,0.0028
22.5,-0.0002
22.5028,0.0186
22.5056,0.014
22.5083,0.0462
22.5111,0.0163
22.5139,0.0225
22.5167,0.0231
22.5194,0.0451
22.5222,0.0393
22.525,0.0558
22.5278,0.0701
22.5306,0.0553
22.5333,0.0734
22.5361,0.0794
22.5389,0.0643
22.5417,0.0967
22.5444,0.0772
22.5472,0.0958
22.55,0.1014
22.5528,0.0948
22.5556,0.1073
22.5583,0.1145
22.5611,0.1015
22.5639,0.1124
22.5667,0.1165
22.5694,0.127
22.5722,0.1356
22.575,0.1196
22.5778,0.1343
22.5806,0.1417
22.5833,0.1504
22.5861,0.1398
22.5889,0.1309
22.5917,0.1544
22.5944,0.1416
22.5972,0.1524
22.6,0.1488
22.6028,0.141
22.6056,0.1562
22.6083,0.1555
22.6111,0.1453
22.6139,0.1324
22.6167,0.1441
22.6194,0.141
22.6222,0.1726
22.625,0.158
22.6278,0.1472
22.6306,0.149
22.6333,0.1384
22.6361,0.1481
22.6389,0.1546
22.6417,0.1553
22.6444,0.1442
22.6472,0.1264
22.65,0.145
22.6528,0.1509
22.6556,0.1287
22.6583,0.1304
22.6611,0.1251
22.6639,0.1322
22.6667,0.1272
22.6694,0.1178
22.6722,0.125
22.675,0.1217
22.6778,0.1018
22.6806,0.1112
22.6833,0.1136
22.6861,0.1037
22.6889,0.0797
22.6917,0.0933
22.6944,0.0612
22.6972,0.0677
22.7,0.0741
22.7028,0.0797
22.7056,0.0712
22.7083,0.0636
22.7111,0.0442
22.7139,0.0561
22.7167,0.0472
22.7194,0.0224
22.7222,0.0262
22.725,0.0275
22.7278,0.0402
22.7306,0.018
22.7333,0.0173
22.7361,0.0033
22.7389,0.0183
22.7417,0.0126
22.7444,-0.013
22.7472,0.0126
22.75,-0.0049
22.7528,0.0092
22.7556,0.0157
22.7583,-0.013
22.7611,0.0019
22.7639,-0.0127
22.7667,-0.0092
22.7694,0.0139
22.7722,-0.0137
22.775,0.0001
22.7778,0.001
22.7806,-0.0051
22.7833,0.0093
22.7861,0.009
22.7889,0.0048
22.7917,-0.0041
22.7944,-0.0056
22.7972,-0.0128
22.8,-0.0068
22.8028,-0.0095
22.8056,0.0054
22.8083,-0.0057
22.8111,0.0041
22.8139,0.0054
22.8167,0.0003
22.8194,-0.0148
22.8222,0.0179
22.825,0.0153
22.8278,-0.0054
