time,ecg
0.0,0.0054
0.0028,-0.0164
0.0056,-0.017
0.0083,0.0149
0.0111,0.0142
0.0139,-0.0071
0.0167,-0.002
0.0194,-0.0082
0.0222,0.0146
0.025,0.0034
0.0278,-0.0155
0.0306,-0.0028
0.0333,0.0173
0.0361,0.0068
0.0389,0.0061
0.0417,0.0064
0.0444,-0.0015
0.0472,-0.0051
0.05,-0.0128
0.0528,-0.0044
0.0556,0.0099
0.0583,-0.0067
0.0611,-0.0057
0.0639,-0.0226
0.0667,0.0171
0.0694,0.0044
0.0722,0.0015
0.075,-0.0025
0.0778,0.0034
0.0806,0.0075
0.0833,0.0198
0.0861,0.0207
0.0889,0.0153
0.0917,0.0349
0.0944,0.0146
0.0972,0.0379
0.1,0.0151
0.1028,0.0438
0.1056,0.0527
0.1083,0.0522
0.1111,0.05
0.1139,0.0607
0.1167,0.0701
0.1194,0.0559
0.1222,0.0776
0.125,0.0881
0.1278,0.0728
0.1306,0.0767
0.1333,0.0889
0.1361,0.0821
0.1389,0.0712
0.1417,0.091
0.1444,0.0619
0.1472,0.084
0.15,0.0727
0.1528,0.0691
0.1556,0.0872
0.1583,0.0662
0.1611,0.0816
0.1639,0.0694
0.1667,0.0743
0.1694,0.0792
0.1722,0.0535
0.175,0.0523
0.1778,0.0759
0.1806,0.052
0.1833,0.0338
0.1861,0.0423
0.1889,0.0441
0.1917,0.0375
0.1944,0.0263
0.1972,0.0347
0.2,0.0126
0.2028,0.0326
0.2056,0.0217
0.2083,-0.0003
0.2111,0.007
0.2139,-0.0074
0.2167,0.0176
0.2194,0.0089
0.2222,-0.0085
0.225,0.0047
0.2278,0.0016
0.2306,0.0301
0.2333,-0.0122
0.2361,-0.0063
0.2389,0.0003
0.2417,-0.0013
0.2444,0.0041
0.2472,-0.0095
0.25,0.0137
0.2528,-0.002
0.2556,0.0041
0.2583,-0.0042
0.2611,0.0134
0.2639,-0.0018
0.2667,-0.018
0.2694,-0.0128
0.2722,-0.0055
0.275,-0.0096
0.2778,-0.0167
0.2806,-0.0336
0.2833,-0.0423
0.2861,-0.0239
0.2889,-0.031
0.2917,-0.0212
0.2944,0.0877
0.2972,0.178
0.3,0.2988
0.3028,0.3959
0.3056,0.5149
0.3083,0.5914
0.3111,0.6558
0.3139,0.7222
0.3167,0.7694
0.3194,0.7857
0.3222,0.8032
0.325,0.7806
0.3278,0.766
0.3306,0.731
0.3333,0.6365
0.3361,0.579
0.3389,0.4891
0.3417,0.3925
0.3444,0.2796
0.3472,0.1907
0.35,0.0393
0.3528,-0.0356
0.3556,-0.0532
0.3583,-0.0703
0.3611,-0.0852
0.3639,-0.1114
0.3667,-0.103
0.3694,-0.116
0.3722,-0.1286
0.375,-0.1019
0.3778,-0.1118
0.3806,-0.0972
0.3833,-0.0657
0.3861,-0.045
0.3889,-0.0329
0.3917,-0.0182
0.3944,-0.0085
0.3972,-0.0115
0.4,0.0058
0.4028,-0.0022
0.4056,-0.0061
0.4083,0.0272
0.4111,0.0048
0.4139,0.0189
0.4167,-0.006
0.4194,0.0039
0.4222,0.0066
0.425,-0.0109
0.4278,-0.0026
0.4306,-0.0208
0.4333,-0.0118
0.4361,-0.0035
0.4389,0.018
0.4417,-0.0008
0.4444,-0.0186
0.4472,-0.0012
0.45,-0.0058
0.4528,0.0033
0.4556,-0.0032
0.4583,0.0036
0.4611,0.0195
0.4639,0.0051
0.4667,-0.0019
0.4694,0.0034
0.4722,-0.0046
0.475,0.0013
0.4778,0.0148
0.4806,-0.0115
0.4833,-0.0071
0.4861,-0.0064
0.4889,-0.0044
0.4917,0.0099
0.4944,-0.0055
0.4972,0.0117
0.5,0.0277
0.5028,0.046
0.5056,0.0504
0.5083,0.0484
0.5111,0.0559
0.5139,0.0641
0.5167,0.0484
0.5194,0.0781
0.5222,0.0793
0.525,0.0865
0.5278,0.0943
0.5306,0.1031
0.5333,0.1013
0.5361,0.0949
0.5389,0.1219
0.5417,0.1153
0.5444,0.1189
0.5472,0.1225
0.55,0.1487
0.5528,0.1338
0.5556,0.1327
0.5583,0.1241
0.5611,0.1447
0.5639,0.139
0.5667,0.1435
0.5694,0.1473
0.5722,0.138
0.575,0.1418
0.5778,0.1537
0.5806,0.1547
0.5833,0.1461
0.5861,0.1376
0.5889,0.1624
0.5917,0.1543
0.5944,0.1521
0.5972,0.1479
0.6,0.1574
0.6028,0.1476
0.6056,0.1351
0.6083,0.1465
0.6111,0.1232
0.6139,0.1424
0.6167,0.1392
0.6194,0.134
0.6222,0.1216
0.625,0.1188
0.6278,0.1281
0.6306,0.1218
0.6333,0.1014
0.6361,0.0975
0.6389,0.1038
0.6417,0.0679
0.6444,0.0905
0.6472,0.093
0.65,0.0959
0.6528,0.0571
0.6556,0.0605
0.6583,0.0613
0.6611,0.0394
0.6639,0.0356
0.6667,0.0546
0.6694,0.028
0.6722,0.0246
0.675,0.0405
0.6778,0.0172
0.6806,0.0127
0.6833,0.0246
0.6861,0.0048
0.6889,0.0261
0.6917,-0.0006
0.6944,0.0175
0.6972,-0.0124
0.7,-0.0048
0.7028,-0.0018
0.7056,-0.0137
0.7083,0.0161
0.7111,-0.0029
0.7139,-0.0009
0.7167,0.0034
0.7194,0.0025
0.7222,-0.0022
0.725,-0.0065
0.7278,-0.0055
0.7306,-0.0012
0.7333,0.008
0.7361,-0.0007
0.7389,0.004
0.7417,0.0023
0.7444,0.0179
0.7472,0.0134
0.75,0.0126
0.7528,-0.006
0.7556,0.0046
0.7583,0.0018
0.7611,-0.0002
0.7639,0.005
0.7667,-0.0192
0.7694,-0.0077
0.7722,0.0075
0.775,-0.0091
0.7778,-0.0071
0.7806,-0.0096
0.7833,-0.0085
0.7861,0.0135
0.7889,-0.0128
0.7917,0.0183
0.7944,-0.0114
0.7972,-0.0089
0.8,0.0005
0.8028,-0.0089
0.8056,-0.0045
0.8083,-0.0116
0.8111,0.0004
0.8139,-0.001
0.8167,-0.0009
0.8194,-0.014
0.8222,-0.0088
0.825,0.0053
0.8278,0.0119
0.8306,0.0183
0.8333,0.0076
0.8361,0.0028
0.8389,-0.0102
0.8417,-0.0052
0.8444,-0.012
0.8472,-0.0002
0.85,0.0051
0.8528,-0.0083
0.8556,0.0129
0.8583,0.001
0.8611,0.016
0.8639,0.0059
0.8667,-0.0068
0.8694,-0.0039
0.8722,0.0039
0.875,0.0014
0.8778,-0.0149
0.8806,0.018
0.8833,-0.0108
0.8861,-0.0018
0.8889,-0.0028
0.8917,0.0207
0.8944,0.009
0.8972,-0.0139
0.9,-0.0067
0.9028,-0.0073
0.9056,0.0006
0.9083,-0.0034
0.9111,0.0046
0.9139,0.0039
0.9167,0.0026
0.9194,-0.005
0.9222,-0.0059
0.925,0.0013
0.9278,-0.0174
0.9306,-0.003
0.9333,0.0219
0.9361,0.0075
0.9389,-0.0052
0.9417,0.0078
0.9444,-0.0147
0.9472,0.0142
0.95,0.0043
0.9528,0.0112
0.9556,-0.0125
0.9583,0.008
0.9611,0.012
0.9639,-0.0081
0.9667,-0.0014
0.9694,-0.0043
0.9722,-0.013
0.975,0.0013
0.9778,-0.0048
0.9806,0.0001
0.9833,0.0055
0.9861,-0.0036
0.9889,-0.0098
0.9917,0.0071
0.9944,-0.0163
0.9972,0.005
1.0,0.001
1.0028,0.0112
1.0056,-0.0058
1.0083,-0.0058
1.0111,0.0026
1.0139,-0.0002
1.0167,0.0185
1.0194,0.0039
1.0222,0.0041
1.025,0.0015
1.0278,-0.0149
1.0306,-0.0049
1.0333,-0.0223
1.0361,0.0108
1.0389,0.0009
1.0417,0.026
1.0444,0.0075
1.0472,0.0167
1.05,0.0226
1.0528,0.0054
1.0556,0.0066
1.0583,0.034
1.0611,0.0275
1.0639,0.028
1.0667,0.013
1.0694,0.0333
1.0722,0.039
1.075,0.053
1.0778,0.0561
1.0806,0.0555
1.0833,0.0703
1.0861,0.061
1.0889,0.0704
1.0917,0.0689
1.0944,0.0835
1.0972,0.0677
1.1,0.077
1.1028,0.0593
1.1056,0.0854
1.1083,0.0558
1.1111,0.0778
1.1139,0.0775
1.1167,0.0863
1.1194,0.0677
1.1222,0.0971
1.125,0.068
1.1278,0.0753
1.1306,0.0726
1.1333,0.0834
1.1361,0.0756
1.1389,0.0654
1.1417,0.0585
1.1444,0.0756
1.1472,0.0583
1.15,0.0574
1.1528,0.0596
1.1556,0.0202
1.1583,0.0202
1.1611,0.0294
1.1639,0.0316
1.1667,0.012
1.1694,0.0073
1.1722,-0.001
1.175,-0.0014
1.1778,0.0056
1.1806,-0.0079
1.1833,-0.0009
1.1861,-0.0061
1.1889,0.0122
1.1917,0.0062
1.1944,-0.0058
1.1972,0.0034
1.2,0.0059
1.2028,-0.0028
1.2056,-0.0038
1.2083,-0.0032
1.2111,0.0
1.2139,0.0041
1.2167,0.0006
1.2194,0.0027
1.2222,-0.0128
1.225,-0.0162
1.2278,-0.0034
1.2306,0.0039
1.2333,-0.0041
1.2361,-0.0226
1.2389,-0.0357
1.2417,-0.0451
1.2444,-0.0553
1.2472,-0.0225
1.25,0.0004
1.2528,0.1154
1.2556,0.2598
1.2583,0.3732
1.2611,0.4661
1.2639,0.5752
1.2667,0.6566
1.2694,0.7204
1.2722,0.7628
1.275,0.8044
1.2778,0.8176
1.2806,0.784
1.2833,0.7673
1.2861,0.7099
1.2889,0.6321
1.2917,0.552
1.2944,0.4463
1.2972,0.3321
1.3,0.2402
1.3028,0.0983
1.3056,-0.0084
1.3083,-0.0313
1.3111,-0.0645
1.3139,-0.08
1.3167,-0.1034
1.3194,-0.1144
1.3222,-0.1044
1.325,-0.1195
1.3278,-0.1092
1.3306,-0.1006
1.3333,-0.0577
1.3361,-0.0581
1.3389,-0.0221
1.3417,-0.0112
1.3444,-0.0021
1.3472,-0.0023
1.35,0.0029
1.3528,-0.002
1.3556,0.0056
1.3583,-0.0202
1.3611,-0.0044
1.3639,-0.0045
1.3667,0.0077
1.3694,0.0103
1.3722,0.0031
1.375,0.0044
1.3778,0.0068
1.3806,0.0012
1.3833,0.0127
1.3861,0.0048
1.3889,-0.0088
1.3917,-0.0138
1.3944,0.0054
1.3972,0.002
1.4,-0.0012
1.4028,0.0022
1.4056,0.0147
1.4083,0.0015
1.4111,-0.0048
1.4139,-0.0005
1.4167,0.0125
1.4194,-0.0146
1.4222,-0.0202
1.425,0.0123
1.4278,-0.0057
1.4306,0.0043
1.4333,0.0112
1.4361,0.0211
1.4389,0.0229
1.4417,0.0263
1.4444,0.0365
1.4472,0.0533
1.45,0.0329
1.4528,0.0266
1.4556,0.0589
1.4583,0.0464
1.4611,0.0565
1.4639,0.0784
1.4667,0.0828
1.4694,0.0865
1.4722,0.0805
1.475,0.0911
1.4778,0.1292
1.4806,0.0965
1.4833,0.1118
1.4861,0.1127
1.4889,0.1234
1.4917,0.1314
1.4944,0.1298
1.4972,0.1354
1.5,0.1472
1.5028,0.1295
1.5056,0.1465
1.5083,0.1445
1.5111,0.1464
1.5139,0.1423
1.5167,0.1353
1.5194,0.1643
1.5222,0.1335
1.525,0.1522
1.5278,0.1452
1.5306,0.1409
1.5333,0.1412
1.5361,0.1396
1.5389,0.143
1.5417,0.1375
1.5444,0.1339
1.5472,0.1234
1.55,0.1187
1.5528,0.1398
1.5556,0.135
1.5583,0.1004
1.5611,0.1189
1.5639,0.0884
1.5667,0.1147
1.5694,0.0897
1.5722,0.1115
1.575,0.0711
1.5778,0.0843
1.5806,0.0826
1.5833,0.0726
1.5861,0.0793
1.5889,0.0666
1.5917,0.052
1.5944,0.0497
1.5972,0.0333
1.6,0.0455
1.6028,0.0464
1.6056,0.0277
1.6083,0.0235
1.6111,0.0145
1.6139,0.0068
1.6167,0.0059
1.6194,-0.011
1.6222,-0.0126
1.625,-0.0046
1.6278,0.0052
1.6306,0.0081
1.6333,-0.0176
1.6361,-0.0062
1.6389,0.0104
1.6417,0.0053
1.6444,-0.0012
1.6472,-0.0018
1.65,-0.0169
1.6528,0.0115
1.6556,-0.0128
1.6583,0.0058
1.6611,0.0075
1.6639,-0.0095
1.6667,0.0017
1.6694,0.0068
1.6722,0.0053
1.675,-0.0086
1.6778,0.0177
1.6806,0.0068
1.6833,-0.0099
1.6861,0.0082
1.6889,0.009
1.6917,-0.007
1.6944,-0.0049
1.6972,0.0071
1.7,-0.0092
1.7028,0.0019
1.7056,0.0043
1.7083,-0.0004
1.7111,0.0377
1.7139,-0.0066
1.7167,0.0045
1.7194,-0.0168
1.7222,-0.0208
1.725,-0.0002
1.7278,-0.0075
1.7306,0.0124
1.7333,0.0032
1.7361,-0.0019
1.7389,0.009
1.7417,-0.0068
1.7444,-0.011
1.7472,-0.0149
1.75,0.0185
1.7528,-0.0254
1.7556,-0.0079
1.7583,-0.0179
1.7611,-0.0218
1.7639,0.0163
1.7667,-0.0031
1.7694,0.0137
1.7722,-0.0121
1.775,0.0114
1.7778,0.0117
1.7806,-0.0174
1.7833,0.0096
1.7861,0.0046
1.7889,0.0081
1.7917,-0.0095
1.7944,0.0018
1.7972,0.0096
1.8,0.0082
1.8028,-0.0082
1.8056,-0.0002
1.8083,-0.0174
1.8111,0.009
1.8139,0.0099
1.8167,0.0006
1.8194,0.0072
1.8222,0.0144
1.825,0.0183
1.8278,0.0036
1.8306,-0.0037
1.8333,-0.0188
1.8361,-0.0009
1.8389,0.007
1.8417,0.0114
1.8444,-0.0196
1.8472,0.0019
1.85,0.0026
1.8528,0.0026
1.8556,-0.0054
1.8583,-0.0024
1.8611,0.004
1.8639,0.0046
1.8667,0.0013
1.8694,0.0073
1.8722,0.0252
1.875,-0.0006
1.8778,-0.0085
1.8806,-0.0008
1.8833,0.0006
1.8861,0.0154
1.8889,0.0058
1.8917,0.0109
1.8944,-0.0181
1.8972,-0.0139
1.9,0.0075
1.9028,0.0047
1.9056,-0.0017
1.9083,-0.0055
1.9111,0.0067
1.9139,-0.0039
1.9167,0.0051
1.9194,0.0036
1.9222,0.0087
1.925,-0.0174
1.9278,-0.0138
1.9306,-0.0033
1.9333,-0.0025
1.9361,-0.0092
1.9389,-0.0102
1.9417,0.0074
1.9444,-0.0232
1.9472,0.0098
1.95,-0.002
1.9528,-0.0089
1.9556,0.0124
1.9583,-0.0033
1.9611,-0.0135
1.9639,-0.0101
1.9667,-0.0105
1.9694,0.0061
1.9722,0.0246
1.975,0.037
1.9778,0.0254
1.9806,0.0503
1.9833,0.044
1.9861,0.0283
1.9889,0.0602
1.9917,0.06
1.9944,0.0442
1.9972,0.0743
2.0,0.0546
2.0028,0.0704
2.0056,0.0649
2.0083,0.0554
2.0111,0.0751
2.0139,0.0701
2.0167,0.0795
2.0194,0.0689
2.0222,0.0743
2.025,0.0665
2.0278,0.0778
2.0306,0.093
2.0333,0.076
2.0361,0.0789
2.0389,0.0671
2.0417,0.0711
2.0444,0.0909
2.0472,0.0683
2.05,0.0733
2.0528,0.0386
2.0556,0.0553
2.0583,0.0601
2.0611,0.0535
2.0639,0.0658
2.0667,0.0347
2.0694,0.0429
2.0722,0.0245
2.075,0.0287
2.0778,0.0249
2.0806,0.0312
2.0833,0.0007
2.0861,0.0245
2.0889,-0.0008
2.0917,-0.0131
2.0944,0.0099
2.0972,0.0069
2.1,0.0103
2.1028,0.0128
2.1056,0.0009
2.1083,-0.0206
2.1111,-0.0169
2.1139,-0.0004
2.1167,0.0085
2.1194,-0.0093
2.1222,-0.0153
2.125,0.0103
2.1278,-0.0051
2.1306,-0.0087
2.1333,0.0185
2.1361,0.0104
2.1389,0.0066
2.1417,0.005
2.1444,-0.0059
2.1472,-0.0102
2.15,-0.0402
2.1528,-0.0419
2.1556,-0.0339
2.1583,-0.017
2.1611,-0.0039
2.1639,0.0613
2.1667,0.1961
2.1694,0.325
2.1722,0.4332
2.175,0.5481
2.1778,0.6222
2.1806,0.6812
2.1833,0.7549
2.1861,0.7866
2.1889,0.8139
2.1917,0.803
2.1944,0.7891
2.1972,0.7145
2.2,0.6521
2.2028,0.5731
2.2056,0.47
2.2083,0.3692
2.2111,0.2566
2.2139,0.1276
2.2167,0.0085
2.2194,-0.0116
2.2222,-0.0366
2.225,-0.0722
2.2278,-0.0808
2.2306,-0.1217
2.2333,-0.1055
2.2361,-0.1066
2.2389,-0.1296
2.2417,-0.0856
2.2444,-0.068
2.2472,-0.0382
2.25,-0.0416
2.2528,0.0164
2.2556,-0.0024
2.2583,0.0219
2.2611,-0.0052
2.2639,0.0012
2.2667,0.0003
2.2694,-0.0011
2.2722,0.0098
2.275,0.0005
2.2778,0.0246
2.2806,-0.0177
2.2833,0.0098
2.2861,-0.0057
2.2889,-0.0026
2.2917,-0.0013
2.2944,-0.0065
2.2972,-0.0033
2.3,0.0056
2.3028,0.0028
2.3056,-0.0028
2.3083,-0.0094
2.3111,-0.0152
2.3139,-0.012
2.3167,-0.0098
2.3194,0.0108
2.3222,-0.002
2.325,-0.0002
2.3278,-0.0074
2.3306,0.0008
2.3333,0.0017
2.3361,0.0158
2.3389,0.0005
2.3417,-0.0006
2.3444,-0.0027
2.3472,0.0025
2.35,0.0242
2.3528,0.0178
2.3556,0.0445
2.3583,0.048
2.3611,0.046
2.3639,0.0835
2.3667,0.0635
2.3694,0.0648
2.3722,0.0781
2.375,0.0847
2.3778,0.0719
2.3806,0.056
2.3833,0.0821
2.3861,0.0997
2.3889,0.1162
2.3917,0.1233
2.3944,0.1176
2.3972,0.1225
2.4,0.1072
2.4028,0.1334
2.4056,0.1335
2.4083,0.1198
2.4111,0.1319
2.4139,0.1357
2.4167,0.1409
2.4194,0.1557
2.4222,0.1346
2.425,0.152
2.4278,0.1377
2.4306,0.1531
2.4333,0.1509
2.4361,0.155
2.4389,0.1595
2.4417,0.1361
2.4444,0.1512
2.4472,0.1438
2.45,0.1283
2.4528,0.1352
2.4556,0.1352
2.4583,0.1227
2.4611,0.1438
2.4639,0.1287
2.4667,0.1119
2.4694,0.1388
2.4722,0.1277
2.475,0.098
2.4778,0.1125
2.4806,0.0983
2.4833,0.1
2.4861,0.0906
2.4889,0.0773
2.4917,0.0737
2.4944,0.0839
2.4972,0.066
2.5,0.0667
2.5028,0.0603
2.5056,0.0501
2.5083,0.0439
2.5111,0.0232
2.5139,0.0302
2.5167,0.0164
2.5194,0.0241
2.5222,-0.0005
2.525,-0.0003
2.5278,0.006
2.5306,-0.0009
2.5333,-0.014
2.5361,0.0142
2.5389,-0.0055
2.5417,-0.0032
2.5444,-0.0051
2.5472,0.0194
2.55,0.0054
2.5528,-0.0131
2.5556,0.0137
2.5583,-0.004
2.5611,-0.0001
2.5639,0.0031
2.5667,0.0099
2.5694,-0.002
2.5722,0.0082
2.575,-0.0065
2.5778,-0.0004
2.5806,0.0149
2.5833,-0.0093
2.5861,0.0054
2.5889,-0.0157
2.5917,-0.0023
2.5944,-0.0012
2.5972,0.0076
2.6,-0.01
2.6028,-0.0025
2.6056,-0.002
2.6083,0.0062
2.6111,0.003
2.6139,-0.0077
2.6167,-0.0138
2.6194,-0.0113
2.6222,-0.0051
2.625,-0.002
2.6278,-0.0045
2.6306,-0.0166
2.6333,0.0009
2.6361,0.0128
2.6389,0.0004
2.6417,0.0179
2.6444,-0.0068
2.6472,-0.008
2.65,-0.0041
2.6528,-0.0015
2.6556,-0.0025
2.6583,-0.0042
2.6611,-0.0126
2.6639,-0.0083
2.6667,0.0083
2.6694,-0.0149
2.6722,0.0051
2.675,-0.0066
2.6778,0.0126
2.6806,-0.0087
2.6833,-0.0165
2.6861,0.0117
2.6889,0.0053
2.6917,-0.0151
2.6944,0.0055
2.6972,-0.0053
2.7,0.0129
2.7028,0.0179
2.7056,0.0067
2.7083,-0.0096
2.7111,0.0036
2.7139,-0.0194
2.7167,0.0177
2.7194,0.0027
2.7222,0.0061
2.725,-0.0097
2.7278,0.0086
2.7306,0.0107
2.7333,-0.0055
2.7361,-0.0048
2.7389,-0.0051
2.7417,0.0087
2.7444,0.0052
2.7472,0.0042
2.75,0.0145
2.7528,-0.0026
2.7556,0.0029
2.7583,0.0068
2.7611,0.0107
2.7639,0.0045
2.7667,-0.0108
2.7694,-0.0176
2.7722,0.0242
2.775,-0.0063
2.7778,0.0016
2.7806,-0.0007
2.7833,0.0138
2.7861,-0.0037
2.7889,0.0006
2.7917,-0.0254
2.7944,-0.0116
2.7972,0.0113
2.8,-0.0039
2.8028,0.0136
2.8056,0.0157
2.8083,-0.0053
2.8111,0.0096
2.8139,0.0096
2.8167,-0.0118
2.8194,0.0065
2.8222,-0.0001
2.825,-0.0289
2.8278,-0.0049
2.8306,0.0046
2.8333,-0.0164
2.8361,-0.0149
2.8389,0.0026
2.8417,-0.0263
2.8444,0.0184
2.8472,-0.0062
2.85,-0.0
2.8528,0.0217
2.8556,0.0
2.8583,0.0046
2.8611,-0.0093
2.8639,0.0203
2.8667,-0.0154
2.8694,-0.0034
2.8722,-0.0102
2.875,0.011
2.8778,0.0281
2.8806,0.0192
2.8833,0.0408
2.8861,0.0405
2.8889,0.0285
2.8917,0.0556
2.8944,0.0445
2.8972,0.0308
2.9,0.0466
2.9028,0.0585
2.9056,0.0424
2.9083,0.0587
2.9111,0.0718
2.9139,0.0741
2.9167,0.0754
2.9194,0.0673
2.9222,0.0663
2.925,0.0686
2.9278,0.0769
2.9306,0.0795
2.9333,0.0794
2.9361,0.0655
2.9389,0.0766
2.9417,0.0737
2.9444,0.0832
2.9472,0.0822
2.95,0.0685
2.9528,0.0545
2.9556,0.0891
2.9583,0.0647
2.9611,0.0889
2.9639,0.0599
2.9667,0.057
2.9694,0.0595
2.9722,0.0564
2.975,0.0539
2.9778,0.0407
2.9806,0.039
2.9833,0.0185
2.9861,0.0267
2.9889,0.0336
2.9917,0.0271
2.9944,0.0026
2.9972,0.0145
3.0,0.0088
3.0028,-0.0151
3.0056,0.0202
3.0083,0.0041
3.0111,0.008
3.0139,0.0044
3.0167,0.017
3.0194,-0.0045
3.0222,0.0189
3.025,0.0206
3.0278,-0.0038
3.0306,-0.0296
3.0333,0.0067
3.0361,-0.0181
3.0389,-0.0058
3.0417,0.0023
3.0444,0.0212
3.0472,0.0086
3.05,-0.0057
3.0528,-0.008
3.0556,0.0055
3.0583,0.0085
3.0611,-0.0019
3.0639,-0.0415
3.0667,-0.0483
3.0694,-0.0348
3.0722,-0.0338
3.075,-0.0107
3.0778,0.0529
3.0806,0.1809
3.0833,0.311
3.0861,0.4063
3.0889,0.5054
3.0917,0.6067
3.0944,0.6782
3.0972,0.7384
3.1,0.7736
3.1028,0.7989
3.1056,0.7775
3.1083,0.7793
3.1111,0.7531
3.1139,0.6903
3.1167,0.6222
3.1194,0.5299
3.1222,0.4275
3.125,0.3152
3.1278,0.2167
3.1306,0.0824
3.1333,-0.0175
3.1361,-0.0295
3.1389,-0.072
3.1417,-0.0884
3.1444,-0.1099
3.1472,-0.1209
3.15,-0.1025
3.1528,-0.0843
3.1556,-0.1204
3.1583,-0.1095
3.1611,-0.0927
3.1639,-0.0615
3.1667,-0.0422
3.1694,-0.005
3.1722,0.0108
3.175,0.0037
3.1778,0.0064
3.1806,-0.0061
3.1833,-0.0023
3.1861,-0.0089
3.1889,0.0158
3.1917,-0.0058
3.1944,0.018
3.1972,-0.0042
3.2,-0.0168
3.2028,-0.0012
3.2056,0.0126
3.2083,-0.0051
3.2111,0.0027
3.2139,-0.0012
3.2167,-0.0051
3.2194,-0.0145
3.2222,-0.0034
3.225,-0.0014
3.2278,-0.0014
3.2306,0.0044
3.2333,-0.0043
3.2361,0.0093
3.2389,0.0171
3.2417,0.0268
3.2444,-0.0124
3.2472,-0.004
3.25,-0.0189
3.2528,0.0097
3.2556,-0.0009
3.2583,0.0058
3.2611,0.0035
3.2639,-0.0003
3.2667,-0.0071
3.2694,0.0286
3.2722,0.0333
3.275,0.0504
3.2778,0.0362
3.2806,0.0566
3.2833,0.0742
3.2861,0.0592
3.2889,0.05
3.2917,0.0774
3.2944,0.084
3.2972,0.0943
3.3,0.0799
3.3028,0.0867
3.3056,0.118
3.3083,0.0871
3.3111,0.0927
3.3139,0.1277
3.3167,0.1179
3.3194,0.1102
3.3222,0.133
3.325,0.1208
3.3278,0.1318
3.3306,0.1282
3.3333,0.156
3.3361,0.1257
3.3389,0.14
3.3417,0.1529
3.3444,0.1559
3.3472,0.1555
3.35,0.153
3.3528,0.1499
3.3556,0.1679
3.3583,0.127
3.3611,0.157
3.3639,0.1369
3.3667,0.1518
3.3694,0.1595
3.3722,0.143
3.375,0.1522
3.3778,0.151
3.3806,0.1253
3.3833,0.1424
3.3861,0.1246
3.3889,0.1325
3.3917,0.1372
3.3944,0.1247
3.3972,0.1157
3.4,0.1076
3.4028,0.11
3.4056,0.0999
3.4083,0.091
3.4111,0.0864
3.4139,0.0807
3.4167,0.081
3.4194,0.0686
3.4222,0.0715
3.425,0.068
3.4278,0.0502
3.4306,0.0528
3.4333,0.0389
3.4361,0.026
3.4389,0.0304
3.4417,0.0217
3.4444,0.0014
3.4472,-0.0189
3.45,-0.0017
3.4528,-0.0173
3.4556,-0.0019
3.4583,0.0001
3.4611,0.0069
3.4639,-0.0011
3.4667,-0.0029
3.4694,0.0008
3.4722,-0.0069
3.475,0.0128
3.4778,0.009
3.4806,0.0137
3.4833,0.0015
3.4861,-0.0222
3.4889,-0.005
3.4917,0.0103
3.4944,-0.009
3.4972,-0.0065
3.5,-0.0067
3.5028,0.0022
3.5056,-0.0011
3.5083,-0.0035
3.5111,-0.014
3.5139,0.0136
3.5167,0.0017
3.5194,0.0082
3.5222,0.0003
3.525,0.0097
3.5278,0.0118
3.5306,-0.0084
3.5333,-0.0002
3.5361,0.0109
3.5389,0.0082
3.5417,0.0308
3.5444,-0.0081
3.5472,0.0124
3.55,0.0151
3.5528,-0.0161
3.5556,0.0008
3.5583,-0.01
3.5611,-0.007
3.5639,-0.0126
3.5667,0.0112
3.5694,-0.0025
3.5722,-0.021
3.575,0.0041
3.5778,-0.013
3.5806,-0.0012
3.5833,0.0013
3.5861,0.0074
3.5889,0.0068
3.5917,-0.0112
3.5944,0.002
3.5972,0.0018
3.6,-0.0012
3.6028,-0.0
3.6056,0.0048
3.6083,-0.0022
3.6111,-0.0132
3.6139,0.0077
3.6167,-0.0059
3.6194,-0.0032
3.6222,-0.0031
3.625,0.0166
3.6278,-0.0037
3.6306,0.0007
3.6333,0.0132
3.6361,0.0002
3.6389,-0.0084
3.6417,-0.0008
3.6444,0.0072
3.6472,0.0077
3.65,-0.0002
3.6528,0.0035
3.6556,-0.019
3.6583,-0.0018
3.6611,0.0083
3.6639,-0.0026
3.6667,0.0095
3.6694,0.0089
3.6722,0.0047
3.675,0.0273
3.6778,0.0026
3.6806,0.0009
3.6833,0.0066
3.6861,-0.0024
3.6889,-0.0068
3.6917,-0.0006
3.6944,-0.0046
3.6972,-0.0085
3.7,-0.0096
3.7028,-0.0086
3.7056,-0.0035
3.7083,0.002
3.7111,-0.0018
3.7139,0.0102
3.7167,0.0051
3.7194,-0.0033
3.7222,-0.011
3.725,0.0115
3.7278,-0.0073
3.7306,-0.0187
3.7333,0.007
3.7361,0.0142
3.7389,-0.0099
3.7417,0.0019
3.7444,0.0093
3.7472,0.0108
3.75,-0.004
3.7528,-0.0022
3.7556,0.0032
3.7583,-0.0007
3.7611,-0.0184
3.7639,-0.0105
3.7667,-0.0015
3.7694,-0.0149
3.7722,0.0148
3.775,-0.0138
3.7778,-0.0135
3.7806,-0.0046
3.7833,-0.0058
3.7861,-0.0094
3.7889,0.0046
3.7917,0.0013
3.7944,0.0158
3.7972,-0.0022
3.8,-0.0139
3.8028,0.0065
3.8056,0.0096
3.8083,0.0113
3.8111,0.0197
3.8139,0.0096
3.8167,0.042
3.8194,0.0208
3.8222,0.0327
3.825,0.0261
3.8278,0.0559
3.8306,0.0438
3.8333,0.0506
3.8361,0.0681
3.8389,0.0618
3.8417,0.0665
3.8444,0.0433
3.8472,0.0859
3.85,0.058
3.8528,0.0788
3.8556,0.0852
3.8583,0.081
3.8611,0.0725
3.8639,0.0874
3.8667,0.0762
3.8694,0.0802
3.8722,0.0774
3.875,0.0718
3.8778,0.0958
3.8806,0.0774
3.8833,0.0682
3.8861,0.0764
3.8889,0.0844
3.8917,0.0697
3.8944,0.0613
3.8972,0.0675
3.9,0.0603
3.9028,0.0611
3.9056,0.0377
3.9083,0.0539
3.9111,0.0415
3.9139,0.0185
3.9167,0.0308
3.9194,0.0369
3.9222,0.028
3.925,-0.0017
3.9278,0.0179
3.9306,0.005
3.9333,0.0005
3.9361,-0.0123
3.9389,0.0189
3.9417,0.0004
3.9444,-0.012
3.9472,-0.0102
3.95,-0.0058
3.9528,-0.001
3.9556,-0.0082
3.9583,-0.0094
3.9611,0.0023
3.9639,0.0031
3.9667,-0.0066
3.9694,-0.0032
3.9722,-0.0097
3.975,-0.0139
3.9778,0.0102
3.9806,0.0125
3.9833,0.0064
3.9861,0.0224
3.9889,0.0049
3.9917,-0.0025
3.9944,-0.0171
3.9972,-0.0414
4.0,-0.049
4.0028,-0.0402
4.0056,-0.0322
4.0083,-0.015
4.0111,0.0125
4.0139,0.1436
4.0167,0.2595
4.0194,0.3698
4.0222,0.4693
4.025,0.5606
4.0278,0.6455
4.0306,0.7191
4.0333,0.7732
4.0361,0.792
4.0389,0.7983
4.0417,0.7903
4.0444,0.7574
4.0472,0.7222
4.05,0.6474
4.0528,0.5868
4.0556,0.4813
4.0583,0.3968
4.0611,0.2708
4.0639,0.1376
4.0667,0.0256
4.0694,-0.0464
4.0722,-0.057
4.075,-0.0725
4.0778,-0.0895
4.0806,-0.1065
4.0833,-0.1436
4.0861,-0.1272
4.0889,-0.1251
4.0917,-0.1076
4.0944,-0.0884
4.0972,-0.0717
4.1,-0.0331
4.1028,-0.0085
4.1056,-0.0003
4.1083,-0.0181
4.1111,0.0017
4.1139,-0.0188
4.1167,-0.0097
4.1194,0.005
4.1222,-0.0045
4.125,0.0007
4.1278,0.0152
4.1306,0.0154
4.1333,0.0049
4.1361,-0.0027
4.1389,-0.0069
4.1417,0.0018
4.1444,0.008
4.1472,-0.0008
4.15,0.003
4.1528,-0.0038
4.1556,-0.0079
4.1583,-0.0042
4.1611,0.0086
4.1639,-0.0132
4.1667,0.0033
4.1694,-0.0055
4.1722,-0.0152
4.175,0.0011
4.1778,-0.001
4.1806,-0.0079
4.1833,-0.0117
4.1861,-0.0031
4.1889,0.0117
4.1917,-0.0147
4.1944,0.0125
4.1972,0.0154
4.2,0.0006
4.2028,0.0081
4.2056,0.0202
4.2083,0.0189
4.2111,0.0387
4.2139,0.0277
4.2167,0.0597
4.2194,0.0275
4.2222,0.0616
4.225,0.046
4.2278,0.0354
4.2306,0.0781
4.2333,0.0646
4.2361,0.0781
4.2389,0.0885
4.2417,0.1096
4.2444,0.0912
4.2472,0.1145
4.25,0.0879
4.2528,0.1315
4.2556,0.122
4.2583,0.1301
4.2611,0.1148
4.2639,0.1245
4.2667,0.1458
4.2694,0.1413
4.2722,0.1382
4.275,0.1359
4.2778,0.1398
4.2806,0.1336
4.2833,0.1657
4.2861,0.1616
4.2889,0.1394
4.2917,0.1593
4.2944,0.1494
4.2972,0.1387
4.3,0.1577
4.3028,0.1636
4.3056,0.1452
4.3083,0.1442
4.3111,0.1445
4.3139,0.149
4.3167,0.1208
4.3194,0.1375
4.3222,0.1453
4.325,0.1177
4.3278,0.1128
4.3306,0.142
4.3333,0.1292
4.3361,0.1271
4.3389,0.1171
4.3417,0.1058
4.3444,0.0942
4.3472,0.0967
4.35,0.0883
4.3528,0.1081
4.3556,0.0813
4.3583,0.0678
4.3611,0.0648
4.3639,0.0524
4.3667,0.0519
4.3694,0.0412
4.3722,0.0357
4.375,0.0181
4.3778,0.0061
4.3806,0.0288
4.3833,0.0134
4.3861,0.0006
4.3889,0.0077
4.3917,-0.0006
4.3944,0.0003
4.3972,0.0092
4.4,0.0022
4.4028,-0.0218
4.4056,-0.0164
4.4083,0.0044
4.4111,-0.0104
4.4139,-0.0022
4.4167,0.0065
4.4194,-0.0022
4.4222,-0.0107
4.425,-0.0221
4.4278,0.0143
4.4306,-0.0006
4.4333,0.0122
4.4361,0.0086
4.4389,0.0073
4.4417,0.0098
4.4444,0.006
4.4472,-0.0008
4.45,0.0142
4.4528,0.0043
4.4556,-0.0118
4.4583,-0.0038
4.4611,-0.0047
4.4639,0.0178
4.4667,-0.0203
4.4694,-0.0021
4.4722,0.0038
4.475,0.0087
4.4778,-0.0053
4.4806,-0.0041
4.4833,-0.0148
4.4861,0.0099
4.4889,-0.007
4.4917,0.0005
4.4944,0.0134
4.4972,0.0052
4.5,-0.0167
4.5028,-0.0198
4.5056,0.0019
4.5083,-0.0167
4.5111,-0.006
4.5139,-0.0026
4.5167,0.0031
4.5194,0.0137
4.5222,0.0162
4.525,0.0094
4.5278,0.0177
4.5306,-0.0045
4.5333,0.0005
4.5361,0.0056
4.5389,0.0136
4.5417,-0.0154
4.5444,0.0023
4.5472,-0.0046
4.55,0.0023
4.5528,-0.0068
4.5556,0.0023
4.5583,-0.0006
4.5611,0.006
4.5639,-0.0025
4.5667,-0.0041
4.5694,-0.0001
4.5722,-0.0058
4.575,-0.0059
4.5778,0.0012
4.5806,-0.0069
4.5833,-0.0092
4.5861,0.0004
4.5889,0.0039
4.5917,-0.0023
4.5944,0.0061
4.5972,-0.0055
4.6,0.0169
4.6028,-0.0115
4.6056,-0.0027
4.6083,-0.0035
4.6111,-0.0032
4.6139,0.0038
4.6167,0.0093
4.6194,0.0058
4.6222,0.0201
4.625,0.0184
4.6278,0.0162
4.6306,-0.0116
4.6333,0.0075
4.6361,-0.0001
4.6389,-0.0005
4.6417,-0.012
4.6444,0.0036
4.6472,-0.0113
4.65,-0.0041
4.6528,0.0077
4.6556,-0.017
4.6583,0.0103
4.6611,-0.0
4.6639,0.0022
4.6667,-0.0088
4.6694,0.0012
4.6722,-0.0006
4.675,-0.0013
4.6778,0.0086
4.6806,0.0102
4.6833,-0.0026
4.6861,-0.0215
4.6889,-0.0058
4.6917,0.0027
4.6944,0.0029
4.6972,0.0108
4.7,0.0093
4.7028,-0.0069
4.7056,-0.0005
4.7083,0.0003
4.7111,-0.0024
4.7139,0.0119
4.7167,0.0171
4.7194,0.0041
4.7222,0.0164
4.725,-0.019
4.7278,0.0051
4.7306,0.0124
4.7333,0.0071
4.7361,-0.0082
4.7389,0.0056
4.7417,0.0174
4.7444,-0.0083
4.7472,-0.0047
4.75,0.006
4.7528,0.0125
4.7556,0.0126
4.7583,0.0161
4.7611,0.0434
4.7639,0.0394
4.7667,0.0375
4.7694,0.0433
4.7722,0.0599
4.775,0.047
4.7778,0.0541
4.7806,0.0494
4.7833,0.0611
4.7861,0.0802
4.7889,0.0845
4.7917,0.0746
4.7944,0.0876
4.7972,0.0734
4.8,0.0778
4.8028,0.0625
4.8056,0.049
4.8083,0.0645
4.8111,0.0639
4.8139,0.0846
4.8167,0.0554
4.8194,0.0759
4.8222,0.0846
4.825,0.0748
4.8278,0.0756
4.8306,0.0761
4.8333,0.0957
4.8361,0.0796
4.8389,0.0944
4.8417,0.0643
4.8444,0.0685
4.8472,0.0497
4.85,0.0477
4.8528,0.0561
4.8556,0.0437
4.8583,0.0445
4.8611,0.0406
4.8639,0.0169
4.8667,0.0214
4.8694,0.0256
4.8722,0.0208
4.875,0.0046
4.8778,0.0007
4.8806,0.0076
4.8833,0.0039
4.8861,0.0085
4.8889,-0.0011
4.8917,-0.0173
4.8944,0.0059
4.8972,-0.0023
4.9,0.0226
4.9028,0.0155
4.9056,0.0097
4.9083,0.0072
4.9111,-0.0027
4.9139,0.0012
4.9167,-0.0131
4.9194,0.0028
4.9222,-0.0101
4.925,0.0025
4.9278,-0.0061
4.9306,-0.003
4.9333,0.0058
4.9361,-0.001
4.9389,-0.003
4.9417,-0.023
4.9444,-0.0166
4.9472,-0.022
4.95,-0.0389
4.9528,-0.0284
4.9556,-0.0086
4.9583,0.0263
4.9611,0.1391
4.9639,0.2576
4.9667,0.3763
4.9694,0.4763
4.9722,0.5721
4.975,0.6515
4.9778,0.6939
4.9806,0.7642
4.9833,0.7898
4.9861,0.8006
4.9889,0.7877
4.9917,0.7637
4.9944,0.7284
4.9972,0.6757
5.0,0.6024
5.0028,0.5112
5.0056,0.4369
5.0083,0.3193
5.0111,0.1841
5.0139,0.0882
5.0167,-0.0178
5.0194,-0.016
5.0222,-0.0576
5.025,-0.0625
5.0278,-0.0935
5.0306,-0.108
5.0333,-0.1082
5.0361,-0.1048
5.0389,-0.1121
5.0417,-0.0901
5.0444,-0.1005
5.0472,-0.0673
5.05,-0.061
5.0528,-0.0254
5.0556,-0.0136
5.0583,-0.0208
5.0611,-0.0013
5.0639,0.005
5.0667,-0.0093
5.0694,-0.0049
5.0722,0.0004
5.075,0.0076
5.0778,0.0056
5.0806,-0.0048
5.0833,-0.0081
5.0861,0.0053
5.0889,0.0085
5.0917,0.0043
5.0944,-0.0052
5.0972,-0.0014
5.1,-0.0102
5.1028,0.0171
5.1056,-0.01
5.1083,0.0223
5.1111,-0.0127
5.1139,-0.0007
5.1167,0.0078
5.1194,0.0012
5.1222,-0.0068
5.125,0.0013
5.1278,-0.0012
5.1306,-0.0146
5.1333,-0.0023
5.1361,-0.0149
5.1389,-0.0074
5.1417,-0.0029
5.1444,-0.01
5.1472,-0.0086
5.15,0.0042
5.1528,-0.0064
5.1556,0.0061
5.1583,0.0058
5.1611,0.0167
5.1639,0.0176
5.1667,0.0334
5.1694,0.0232
5.1722,0.0603
5.175,0.0489
5.1778,0.0494
5.1806,0.0669
5.1833,0.0788
5.1861,0.0828
5.1889,0.0886
5.1917,0.0833
5.1944,0.0762
5.1972,0.1056
5.2,0.1172
5.2028,0.1204
5.2056,0.0987
5.2083,0.1188
5.2111,0.138
5.2139,0.1399
5.2167,0.118
5.2194,0.1291
5.2222,0.1376
5.225,0.1324
5.2278,0.1311
5.2306,0.1324
5.2333,0.1527
5.2361,0.1493
5.2389,0.1416
5.2417,0.141
5.2444,0.1493
5.2472,0.1448
5.25,0.1501
5.2528,0.1314
5.2556,0.1587
5.2583,0.1522
5.2611,0.148
5.2639,0.1431
5.2667,0.1381
5.2694,0.1384
5.2722,0.1394
5.275,0.1416
5.2778,0.1262
5.2806,0.1224
5.2833,0.1244
5.2861,0.1241
5.2889,0.1177
5.2917,0.1077
5.2944,0.0983
5.2972,0.1071
5.3,0.0958
5.3028,0.0966
5.3056,0.0835
5.3083,0.075
5.3111,0.0896
5.3139,0.0698
5.3167,0.0631
5.3194,0.0479
5.3222,0.0627
5.325,0.0503
5.3278,0.0367
5.3306,0.037
5.3333,0.0313
5.3361,0.0248
5.3389,0.0116
5.3417,0.004
5.3444,0.0085
5.3472,-0.0015
5.35,-0.0036
5.3528,0.0084
5.3556,0.0076
5.3583,0.0017
5.3611,-0.0024
5.3639,0.0059
5.3667,0.0193
5.3694,-0.0104
5.3722,0.011
5.375,0.0061
5.3778,0.0188
5.3806,-0.0114
5.3833,0.0229
5.3861,-0.0029
5.3889,0.0037
5.3917,-0.0103
5.3944,-0.0044
5.3972,0.0005
5.4,-0.0065
5.4028,0.0207
5.4056,0.0032
5.4083,0.0084
5.4111,-0.0086
5.4139,0.0044
5.4167,-0.0115
5.4194,-0.0039
5.4222,0.0109
5.425,-0.001
5.4278,-0.0009
5.4306,0.0076
5.4333,-0.0144
5.4361,0.0261
5.4389,0.0003
5.4417,-0.0005
5.4444,0.0097
5.4472,0.0209
5.45,0.0107
5.4528,-0.0029
5.4556,-0.0038
5.4583,-0.0221
5.4611,-0.0076
5.4639,-0.0127
5.4667,-0.011
5.4694,0.0043
5.4722,0.0018
5.475,-0.0004
5.4778,-0.0082
5.4806,0.007
5.4833,-0.001
5.4861,0.0032
5.4889,-0.002
5.4917,-0.0074
5.4944,0.0063
5.4972,0.0133
5.5,0.0112
5.5028,0.0246
5.5056,-0.0145
5.5083,0.0001
5.5111,0.0129
5.5139,-0.0059
5.5167,-0.0098
5.5194,-0.0103
5.5222,-0.0009
5.525,0.0002
5.5278,0.02
5.5306,0.0055
5.5333,0.0102
5.5361,-0.0118
5.5389,0.0095
5.5417,0.0026
5.5444,-0.0039
5.5472,-0.0099
5.55,0.0123
5.5528,-0.0028
5.5556,-0.0132
5.5583,0.0015
5.5611,-0.025
5.5639,0.0004
5.5667,0.0098
5.5694,-0.0119
5.5722,-0.0007
5.575,0.012
5.5778,-0.0031
5.5806,0.0065
5.5833,0.0027
5.5861,0.0037
5.5889,-0.0001
5.5917,0.0027
5.5944,0.0005
5.5972,0.0057
5.6,-0.0047
5.6028,-0.0037
5.6056,-0.0041
5.6083,0.0036
5.6111,-0.0067
5.6139,-0.0045
5.6167,0.017
5.6194,-0.0079
5.6222,0.0012
5.625,-0.0039
5.6278,-0.0095
5.6306,0.006
5.6333,-0.0077
5.6361,-0.0041
5.6389,0.0008
5.6417,0.0121
5.6444,0.0152
5.6472,-0.0127
5.65,0.0115
5.6528,-0.0096
5.6556,-0.0002
5.6583,-0.0146
5.6611,0.0021
5.6639,0.0068
5.6667,0.0109
5.6694,-0.0025
5.6722,-0.0037
5.675,0.0059
5.6778,0.0093
5.6806,-0.0106
5.6833,0.0027
5.6861,0.007
5.6889,-0.0044
5.6917,-0.0098
5.6944,0.0098
5.6972,0.0101
5.7,0.008
5.7028,0.0013
5.7056,-0.0144
5.7083,0.0081
5.7111,0.001
5.7139,0.0037
5.7167,-0.0067
5.7194,0.0237
5.7222,0.0327
5.725,0.0222
5.7278,0.0333
5.7306,0.0416
5.7333,0.0483
5.7361,0.0393
5.7389,0.0394
5.7417,0.0469
5.7444,0.0445
5.7472,0.0734
5.75,0.0782
5.7528,0.0518
5.7556,0.0708
5.7583,0.0922
5.7611,0.0697
5.7639,0.061
5.7667,0.0692
5.7694,0.0792
5.7722,0.0694
5.775,0.0871
5.7778,0.0968
5.7806,0.076
5.7833,0.0752
5.7861,0.0823
5.7889,0.0876
5.7917,0.0653
5.7944,0.074
5.7972,0.0664
5.8,0.0543
5.8028,0.0657
5.8056,0.0785
5.8083,0.084
5.8111,0.0751
5.8139,0.0638
5.8167,0.039
5.8194,0.0492
5.8222,0.0376
5.825,0.0383
5.8278,0.0433
5.8306,0.0444
5.8333,0.0337
5.8361,0.0212
5.8389,0.0154
5.8417,0.0256
5.8444,0.0006
5.8472,0.0127
5.85,0.0098
5.8528,0.0031
5.8556,0.019
5.8583,0.0042
5.8611,-0.0077
5.8639,0.008
5.8667,0.0118
5.8694,0.0015
5.8722,-0.0175
5.875,-0.0092
5.8778,-0.0066
5.8806,0.0143
5.8833,-0.0072
5.8861,-0.0222
5.8889,0.007
5.8917,0.0007
5.8944,0.0069
5.8972,-0.0178
5.9,-0.0067
5.9028,0.004
5.9056,-0.0112
5.9083,0.0178
5.9111,-0.0097
5.9139,-0.0256
5.9167,-0.0398
5.9194,-0.0516
5.9222,-0.0343
5.925,-0.0428
5.9278,-0.009
5.9306,-0.0053
5.9333,0.1261
5.9361,0.2392
5.9389,0.3537
5.9417,0.4596
5.9444,0.5543
5.9472,0.6175
5.95,0.7046
5.9528,0.7303
5.9556,0.7857
5.9583,0.7913
5.9611,0.7982
5.9639,0.782
5.9667,0.7502
5.9694,0.6934
5.9722,0.6376
5.975,0.5598
5.9778,0.4563
5.9806,0.3658
5.9833,0.2646
5.9861,0.1374
5.9889,0.0307
5.9917,-0.0379
5.9944,-0.0479
5.9972,-0.0843
6.0,-0.0772
6.0028,-0.1216
6.0056,-0.1067
6.0083,-0.117
6.0111,-0.1261
6.0139,-0.1107
6.0167,-0.0891
6.0194,-0.0954
6.0222,-0.0735
6.025,-0.0134
6.0278,-0.0158
6.0306,0.0201
6.0333,0.0065
6.0361,-0.0037
6.0389,0.0113
6.0417,0.0156
6.0444,0.0058
6.0472,-0.0066
6.05,-0.0008
6.0528,-0.0146
6.0556,0.0028
6.0583,0.0059
6.0611,0.0021
6.0639,-0.0249
6.0667,-0.005
6.0694,-0.0094
6.0722,-0.002
6.075,0.0068
6.0778,0.0017
6.0806,-0.0117
6.0833,-0.0005
6.0861,0.0079
6.0889,-0.0002
6.0917,0.0012
6.0944,-0.0163
6.0972,0.0099
6.1,0.001
6.1028,-0.0131
6.1056,0.0011
6.1083,-0.0112
6.1111,-0.0041
6.1139,0.0152
6.1167,0.0011
6.1194,-0.0042
6.1222,-0.0128
6.125,-0.0158
6.1278,0.0054
6.1306,-0.0114
6.1333,0.0035
6.1361,0.0014
6.1389,0.0172
6.1417,0.0203
6.1444,0.041
6.1472,0.0568
6.15,0.044
6.1528,0.0576
6.1556,0.0521
6.1583,0.0734
6.1611,0.0704
6.1639,0.0776
6.1667,0.0732
6.1694,0.096
6.1722,0.105
6.175,0.1071
6.1778,0.1155
6.1806,0.1066
6.1833,0.1308
6.1861,0.1112
6.1889,0.1305
6.1917,0.14
6.1944,0.1396
6.1972,0.116
6.2,0.1385
6.2028,0.1505
6.2056,0.1416
6.2083,0.1508
6.2111,0.1231
6.2139,0.1399
6.2167,0.1516
6.2194,0.1543
6.2222,0.1324
6.225,0.1498
6.2278,0.1433
6.2306,0.1455
6.2333,0.1338
6.2361,0.1503
6.2389,0.158
6.2417,0.1605
6.2444,0.1266
6.2472,0.149
6.25,0.1455
6.2528,0.1471
6.2556,0.1176
6.2583,0.1328
6.2611,0.1318
6.2639,0.1283
6.2667,0.1296
6.2694,0.1184
6.2722,0.1025
6.275,0.1223
6.2778,0.1045
6.2806,0.0959
6.2833,0.1003
6.2861,0.1021
6.2889,0.0858
6.2917,0.0907
6.2944,0.0694
6.2972,0.0674
6.3,0.0489
6.3028,0.0637
6.3056,0.0471
6.3083,0.0356
6.3111,0.0315
6.3139,0.0137
6.3167,0.0189
6.3194,0.0258
6.3222,0.0059
6.325,-0.004
6.3278,0.0054
6.3306,0.0115
6.3333,-0.0035
6.3361,-0.0121
6.3389,0.0181
6.3417,-0.0053
6.3444,0.0049
6.3472,0.0128
6.35,-0.0048
6.3528,0.0024
6.3556,-0.0011
6.3583,-0.0084
6.3611,-0.007
6.3639,0.0046
6.3667,-0.0101
6.3694,-0.0082
6.3722,-0.006
6.375,0.0181
6.3778,0.0284
6.3806,0.0025
6.3833,0.0101
6.3861,0.0015
6.3889,0.0066
6.3917,0.0053
6.3944,0.0156
6.3972,-0.0092
6.4,0.0107
6.4028,-0.0025
6.4056,-0.009
6.4083,-0.0011
6.4111,-0.001
6.4139,-0.0085
6.4167,0.0087
6.4194,-0.0015
6.4222,0.0023
6.425,0.0133
6.4278,0.013
6.4306,-0.0088
6.4333,0.0104
6.4361,0.0146
6.4389,0.0174
6.4417,0.022
6.4444,0.0001
6.4472,-0.0092
6.45,0.0077
6.4528,0.0194
6.4556,0.0014
6.4583,-0.0046
6.4611,0.0023
6.4639,-0.0069
6.4667,0.0004
6.4694,0.0186
6.4722,-0.0002
6.475,-0.0077
6.4778,0.016
6.4806,-0.0096
6.4833,-0.0069
6.4861,-0.0081
6.4889,0.0033
6.4917,-0.0066
6.4944,-0.0131
6.4972,-0.0023
6.5,-0.0104
6.5028,-0.0221
6.5056,0.0138
6.5083,-0.0097
6.5111,0.0202
6.5139,0.0088
6.5167,0.0077
6.5194,-0.0014
6.5222,-0.0029
6.525,-0.0171
6.5278,-0.0018
6.5306,0.0089
6.5333,-0.0015
6.5361,-0.0046
6.5389,0.0153
6.5417,0.006
6.5444,0.0249
6.5472,-0.0126
6.55,-0.0031
6.5528,-0.0123
6.5556,0.0036
6.5583,-0.0092
6.5611,-0.008
6.5639,-0.0046
6.5667,0.0001
6.5694,-0.0016
6.5722,-0.0118
6.575,0.0014
6.5778,0.0111
6.5806,-0.0062
6.5833,-0.0306
6.5861,-0.0131
6.5889,-0.0109
6.5917,-0.0142
6.5944,-0.002
6.5972,0.0019
6.6,0.0007
6.6028,-0.0004
6.6056,-0.0117
6.6083,0.0079
6.6111,-0.0043
6.6139,0.0064
6.6167,0.009
6.6194,0.0195
6.6222,0.0084
6.625,0.0003
6.6278,0.0002
6.6306,0.014
6.6333,0.0101
6.6361,0.0029
6.6389,0.0024
6.6417,0.003
6.6444,0.0012
6.6472,-0.0074
6.65,0.0118
6.6528,-0.0038
6.6556,-0.0033
6.6583,-0.006
6.6611,-0.0006
6.6639,0.0012
6.6667,-0.0082
6.6694,0.0038
6.6722,0.0004
6.675,0.011
6.6778,0.0124
6.6806,-0.0062
6.6833,-0.0018
6.6861,-0.0023
6.6889,-0.0078
6.6917,0.0097
6.6944,0.0004
6.6972,-0.0075
6.7,0.0034
6.7028,0.0005
6.7056,-0.0015
6.7083,0.0206
6.7111,0.0015
6.7139,0.0164
6.7167,0.013
6.7194,0.0236
6.7222,0.0211
6.725,0.0487
6.7278,0.0357
6.7306,0.0349
6.7333,0.0556
6.7361,0.0439
6.7389,0.0609
6.7417,0.0456
6.7444,0.0652
6.7472,0.0659
6.75,0.0688
6.7528,0.0659
6.7556,0.0706
6.7583,0.0769
6.7611,0.0835
6.7639,0.0749
6.7667,0.0751
6.7694,0.0949
6.7722,0.0655
6.775,0.0928
6.7778,0.0846
6.7806,0.0609
6.7833,0.0869
6.7861,0.0808
6.7889,0.0651
6.7917,0.0705
6.7944,0.0847
6.7972,0.0816
6.8,0.0882
6.8028,0.0676
6.8056,0.0631
6.8083,0.047
6.8111,0.047
6.8139,0.0692
6.8167,0.0484
6.8194,0.0408
6.8222,0.0453
6.825,0.0316
6.8278,0.0434
6.8306,0.0249
6.8333,0.0179
6.8361,0.0208
6.8389,-0.0094
6.8417,0.0085
6.8444,0.0083
6.8472,-0.009
6.85,0.0119
6.8528,0.0163
6.8556,-0.0144
6.8583,-0.0022
6.8611,0.0098
6.8639,-0.0055
6.8667,0.0012
6.8694,0.0018
6.8722,0.0142
6.875,0.0076
6.8778,-0.0053
6.8806,0.0235
6.8833,0.0035
6.8861,-0.0124
6.8889,0.0106
6.8917,0.0067
6.8944,0.0046
6.8972,0.0051
6.9,0.0019
6.9028,0.0228
6.9056,-0.0094
6.9083,-0.0289
6.9111,-0.0451
6.9139,-0.0356
6.9167,-0.0441
6.9194,-0.0402
6.9222,-0.0152
6.925,-0.0045
6.9278,0.0613
6.9306,0.1821
6.9333,0.2876
6.9361,0.399
6.9389,0.4998
6.9417,0.5767
6.9444,0.6427
6.9472,0.7165
6.95,0.7696
6.9528,0.7873
6.9556,0.8039
6.9583,0.7967
6.9611,0.7674
6.9639,0.7235
6.9667,0.6826
6.9694,0.6184
6.9722,0.5523
6.975,0.4417
6.9778,0.3522
6.9806,0.2384
6.9833,0.1107
6.9861,0.0227
6.9889,-0.0229
6.9917,-0.0393
6.9944,-0.0529
6.9972,-0.082
7.0,-0.1186
7.0028,-0.1118
7.0056,-0.1397
7.0083,-0.128
7.0111,-0.1081
7.0139,-0.1044
7.0167,-0.0847
7.0194,-0.0701
7.0222,-0.0392
7.025,-0.0026
7.0278,0.0072
7.0306,-0.0013
7.0333,0.0143
7.0361,0.0113
7.0389,0.0194
7.0417,0.0121
7.0444,0.0147
7.0472,0.0087
7.05,-0.0084
7.0528,0.0011
7.0556,-0.0131
7.0583,0.0067
7.0611,-0.0004
7.0639,0.0103
7.0667,0.0048
7.0694,-0.0015
7.0722,-0.0041
7.075,0.0142
7.0778,-0.0025
7.0806,-0.0043
7.0833,0.0012
7.0861,-0.0079
7.0889,-0.0024
7.0917,-0.0029
7.0944,-0.0011
7.0972,-0.0025
7.1,0.0088
7.1028,0.0063
7.1056,-0.0025
7.1083,-0.0133
7.1111,-0.0168
7.1139,-0.0049
7.1167,0.0039
7.1194,0.0015
7.1222,0.0174
7.125,0.0039
7.1278,0.0015
7.1306,0.0178
7.1333,-0.0003
7.1361,0.0264
7.1389,0.0418
7.1417,0.0404
7.1444,0.0498
7.1472,0.0455
7.15,0.0505
7.1528,0.0558
7.1556,0.0728
7.1583,0.0693
7.1611,0.0823
7.1639,0.0846
7.1667,0.1011
7.1694,0.0934
7.1722,0.1057
7.175,0.0953
7.1778,0.1156
7.1806,0.0979
7.1833,0.1202
7.1861,0.1207
7.1889,0.114
7.1917,0.1137
7.1944,0.1415
7.1972,0.1342
7.2,0.1379
7.2028,0.1348
7.2056,0.1536
7.2083,0.1362
7.2111,0.1326
7.2139,0.1348
7.2167,0.1494
7.2194,0.1507
7.2222,0.1494
7.225,0.155
7.2278,0.1541
7.2306,0.1297
7.2333,0.1487
7.2361,0.1581
7.2389,0.1444
7.2417,0.1483
7.2444,0.1315
7.2472,0.1497
7.25,0.1366
7.2528,0.1456
7.2556,0.134
7.2583,0.1478
7.2611,0.1286
7.2639,0.1321
7.2667,0.1444
7.2694,0.1234
7.2722,0.1012
7.275,0.1092
7.2778,0.1078
7.2806,0.0957
7.2833,0.1053
7.2861,0.0936
7.2889,0.0799
7.2917,0.0583
7.2944,0.0676
7.2972,0.0725
7.3,0.0558
7.3028,0.0584
7.3056,0.0453
7.3083,0.0577
7.3111,0.0414
7.3139,0.0109
7.3167,0.0187
7.3194,0.0064
7.3222,0.0012
7.325,-0.0007
7.3278,-0.0016
7.3306,0.0076
7.3333,-0.006
7.3361,-0.0087
7.3389,-0.0161
7.3417,0.0019
7.3444,-0.0102
7.3472,-0.0124
7.35,-0.0023
7.3528,0.0065
7.3556,0.0183
7.3583,0.0132
7.3611,-0.0069
7.3639,-0.0061
7.3667,0.0124
7.3694,-0.0071
7.3722,-0.0145
7.375,0.0202
7.3778,-0.0015
7.3806,0.0135
7.3833,-0.0056
7.3861,0.0
7.3889,-0.0013
7.3917,0.0045
7.3944,-0.0027
7.3972,0.0099
7.4,0.0048
7.4028,0.0006
7.4056,-0.002
7.4083,-0.0055
7.4111,-0.012
7.4139,0.0064
7.4167,-0.0032
7.4194,0.0076
7.4222,-0.0086
7.425,-0.0105
7.4278,0.0122
7.4306,0.0081
7.4333,0.0125
7.4361,-0.0029
7.4389,-0.009
7.4417,0.0033
7.4444,-0.0201
7.4472,-0.0001
7.45,0.009
7.4528,0.0023
7.4556,-0.0227
7.4583,0.0193
7.4611,0.0103
7.4639,0.0111
7.4667,0.0007
7.4694,0.0074
7.4722,-0.0151
7.475,-0.0124
7.4778,-0.0103
7.4806,0.0069
7.4833,-0.0076
7.4861,0.0098
7.4889,-0.0075
7.4917,-0.0006
7.4944,-0.0036
7.4972,0.0085
7.5,0.0116
7.5028,-0.0067
7.5056,0.0134
7.5083,0.0099
7.5111,0.0059
7.5139,0.0045
7.5167,0.0149
7.5194,0.0013
7.5222,-0.0026
7.525,0.0127
7.5278,0.0063
7.5306,-0.0219
7.5333,0.0033
7.5361,0.0091
7.5389,0.0083
7.5417,-0.0027
7.5444,-0.0133
7.5472,0.0053
7.55,0.0033
7.5528,0.012
7.5556,0.0042
7.5583,-0.0051
7.5611,0.0024
7.5639,-0.001
7.5667,0.0032
7.5694,-0.0103
7.5722,-0.0105
7.575,0.0032
7.5778,-0.0189
7.5806,-0.0174
7.5833,0.011
7.5861,0.0007
7.5889,-0.0098
7.5917,0.0227
7.5944,0.0115
7.5972,0.0101
7.6,-0.0164
7.6028,-0.0082
7.6056,-0.0057
7.6083,0.0065
7.6111,0.0149
7.6139,-0.0139
7.6167,0.0035
7.6194,0.0002
7.6222,-0.0103
7.625,-0.0054
7.6278,0.008
7.6306,0.0049
7.6333,-0.0032
7.6361,-0.0025
7.6389,-0.0105
7.6417,0.0109
7.6444,0.0109
7.6472,0.0018
7.65,-0.0051
7.6528,-0.0159
7.6556,-0.0042
7.6583,0.0005
7.6611,-0.0124
7.6639,-0.0055
7.6667,0.0041
7.6694,0.0157
7.6722,-0.021
7.675,0.014
7.6778,-0.0067
7.6806,0.0007
7.6833,-0.0146
7.6861,-0.0065
7.6889,0.0025
7.6917,-0.0064
7.6944,0.0073
7.6972,0.0059
7.7,-0.0106
7.7028,-0.0011
7.7056,0.0002
7.7083,0.0137
7.7111,0.0076
7.7139,0.0076
7.7167,0.0091
7.7194,0.0292
7.7222,0.0105
7.725,0.0044
7.7278,0.0178
7.7306,0.0279
7.7333,0.0417
7.7361,0.041
7.7389,0.0573
7.7417,0.0475
7.7444,0.0428
7.7472,0.0392
7.75,0.0683
7.7528,0.0564
7.7556,0.0563
7.7583,0.0725
7.7611,0.0573
7.7639,0.0855
7.7667,0.0626
7.7694,0.0781
7.7722,0.1058
7.775,0.0852
7.7778,0.0767
7.7806,0.0945
7.7833,0.0557
7.7861,0.0582
7.7889,0.092
7.7917,0.0953
7.7944,0.0697
7.7972,0.0815
7.8,0.0681
7.8028,0.0859
7.8056,0.0855
7.8083,0.0877
7.8111,0.0642
7.8139,0.065
7.8167,0.0783
7.8194,0.0536
7.8222,0.065
7.825,0.0375
7.8278,0.0267
7.8306,0.0394
7.8333,0.0279
7.8361,0.051
7.8389,0.0098
7.8417,0.0206
7.8444,0.0185
7.8472,0.0154
7.85,-0.016
7.8528,0.0241
7.8556,-0.0044
7.8583,-0.0153
7.8611,-0.0011
7.8639,-0.0034
7.8667,-0.0057
7.8694,-0.0041
7.8722,0.0091
7.875,-0.0113
7.8778,-0.0005
7.8806,0.0033
7.8833,0.0034
7.8861,-0.0268
7.8889,0.0073
7.8917,-0.0192
7.8944,-0.0127
7.8972,0.0039
7.9,-0.0109
7.9028,0.0012
7.9056,-0.0013
7.9083,0.0048
7.9111,-0.002
7.9139,0.0083
7.9167,-0.0057
7.9194,0.0176
7.9222,-0.0199
7.925,-0.0315
7.9278,-0.0355
7.9306,-0.0514
7.9333,-0.0218
7.9361,-0.0139
7.9389,-0.0007
7.9417,0.0778
7.9444,0.1702
7.9472,0.295
7.95,0.3871
7.9528,0.4691
7.9556,0.5717
7.9583,0.647
7.9611,0.7104
7.9639,0.756
7.9667,0.7889
7.9694,0.7999
7.9722,0.8064
7.975,0.7894
7.9778,0.7555
7.9806,0.7274
7.9833,0.6676
7.9861,0.5599
7.9889,0.4892
7.9917,0.409
7.9944,0.3121
7.9972,0.2
8.0,0.0927
8.0028,-0.0174
8.0056,-0.0386
8.0083,-0.0369
8.0111,-0.0788
8.0139,-0.0947
8.0167,-0.1116
8.0194,-0.1169
8.0222,-0.1202
8.025,-0.1189
8.0278,-0.1292
8.0306,-0.088
8.0333,-0.0775
8.0361,-0.0595
8.0389,-0.0488
8.0417,-0.0334
8.0444,0.0042
8.0472,0.0148
8.05,-0.0098
8.0528,-0.0072
8.0556,0.0012
8.0583,-0.0023
8.0611,-0.0006
8.0639,0.0176
8.0667,-0.0034
8.0694,-0.0096
8.0722,-0.0034
8.075,-0.0018
8.0778,-0.0114
8.0806,-0.0171
8.0833,0.0081
8.0861,-0.0107
8.0889,-0.0132
8.0917,0.0108
8.0944,-0.0075
8.0972,-0.0103
8.1,0.0078
8.1028,-0.0023
8.1056,-0.0003
8.1083,0.0151
8.1111,0.0147
8.1139,0.0018
8.1167,0.0152
8.1194,0.0144
8.1222,-0.007
8.125,-0.0041
8.1278,-0.004
8.1306,0.0052
8.1333,-0.0048
8.1361,0.0016
8.1389,-0.0035
8.1417,-0.0127
8.1444,-0.0045
8.1472,-0.0
8.15,0.0144
8.1528,0.0116
8.1556,0.0243
8.1583,0.025
8.1611,0.0312
8.1639,0.0435
8.1667,0.0412
8.1694,0.0421
8.1722,0.0429
8.175,0.0686
8.1778,0.0439
8.1806,0.0842
8.1833,0.0697
8.1861,0.091
8.1889,0.0796
8.1917,0.0995
8.1944,0.0977
8.1972,0.1015
8.2,0.1134
8.2028,0.1059
8.2056,0.1146
8.2083,0.1281
8.2111,0.1264
8.2139,0.1297
8.2167,0.1344
8.2194,0.1324
8.2222,0.1292
8.225,0.1406
8.2278,0.1286
8.2306,0.1375
8.2333,0.153
8.2361,0.1507
8.2389,0.1431
8.2417,0.1617
8.2444,0.1584
8.2472,0.1634
8.25,0.1504
8.2528,0.1625
8.2556,0.1593
8.2583,0.1493
8.2611,0.1358
8.2639,0.1562
8.2667,0.1502
8.2694,0.1442
8.2722,0.1428
8.275,0.1324
8.2778,0.1543
8.2806,0.1337
8.2833,0.1293
8.2861,0.1442
8.2889,0.1376
8.2917,0.1195
8.2944,0.1337
8.2972,0.1094
8.3,0.1215
8.3028,0.1049
8.3056,0.1054
8.3083,0.1123
8.3111,0.0787
8.3139,0.0959
8.3167,0.0855
8.3194,0.0793
8.3222,0.086
8.325,0.0645
8.3278,0.0653
8.3306,0.0573
8.3333,0.0404
8.3361,0.0458
8.3389,0.0133
8.3417,0.0309
8.3444,0.0082
8.3472,0.026
8.35,0.0197
8.3528,0.0014
8.3556,-0.0015
8.3583,-0.0101
8.3611,0.0076
8.3639,0.0046
8.3667,0.0019
8.3694,0.009
8.3722,0.0075
8.375,0.0152
8.3778,0.01
8.3806,0.0186
8.3833,0.0023
8.3861,0.0164
8.3889,0.0016
8.3917,-0.0058
8.3944,0.0129
8.3972,-0.0015
8.4,-0.002
8.4028,-0.0058
8.4056,0.0045
8.4083,-0.0183
8.4111,-0.0042
8.4139,0.0003
8.4167,-0.0024
8.4194,0.0076
8.4222,0.0072
8.425,0.0086
8.4278,-0.0095
8.4306,-0.0146
8.4333,-0.0089
8.4361,-0.0134
8.4389,0.0031
8.4417,0.0042
8.4444,0.0101
8.4472,-0.0
8.45,-0.0095
8.4528,-0.0061
8.4556,0.0087
8.4583,0.0113
8.4611,0.0039
8.4639,0.0143
8.4667,-0.004
8.4694,0.0018
8.4722,-0.0038
8.475,0.0116
8.4778,0.0084
8.4806,0.0069
8.4833,-0.001
8.4861,-0.0257
8.4889,-0.0043
8.4917,-0.0064
8.4944,-0.0011
8.4972,0.0108
8.5,0.0013
8.5028,-0.0126
8.5056,0.0077
8.5083,0.0126
8.5111,-0.0221
8.5139,-0.0054
8.5167,0.0007
8.5194,0.0139
8.5222,0.007
8.525,-0.013
8.5278,0.0067
8.5306,0.0087
8.5333,0.0063
8.5361,-0.0066
8.5389,0.0042
8.5417,-0.0136
8.5444,-0.0007
8.5472,0.0159
8.55,0.0098
8.5528,-0.0059
8.5556,0.0012
8.5583,-0.0028
8.5611,0.0028
8.5639,-0.0009
8.5667,-0.0197
8.5694,0.0002
8.5722,0.0057
8.575,-0.0013
8.5778,0.0037
8.5806,-0.0069
8.5833,0.0074
8.5861,0.0007
8.5889,-0.0029
8.5917,-0.008
8.5944,0.0003
8.5972,-0.0009
8.6,0.0099
8.6028,0.0076
8.6056,-0.0159
8.6083,0.0063
8.6111,-0.0121
8.6139,-0.0075
8.6167,-0.0075
8.6194,-0.0115
8.6222,-0.0003
8.625,-0.0081
8.6278,0.0134
8.6306,-0.0106
8.6333,0.0175
8.6361,-0.0101
8.6389,-0.0074
8.6417,-0.009
8.6444,0.0025
8.6472,0.0164
8.65,0.014
8.6528,0.0024
8.6556,0.0083
8.6583,0.0058
8.6611,-0.0016
8.6639,-0.0001
8.6667,-0.0163
8.6694,0.0006
8.6722,-0.0119
8.675,-0.0107
8.6778,0.0055
8.6806,-0.0024
8.6833,-0.0127
8.6861,0.0102
8.6889,-0.0049
8.6917,0.0014
8.6944,0.0016
8.6972,0.0096
8.7,0.0203
8.7028,-0.0089
8.7056,-0.0077
8.7083,-0.006
8.7111,-0.0027
8.7139,0.0203
8.7167,-0.0103
8.7194,0.0176
8.7222,-0.0091
8.725,0.0112
8.7278,-0.0171
8.7306,-0.0074
8.7333,0.0226
8.7361,-0.0047
8.7389,0.0024
8.7417,-0.0059
8.7444,-0.0097
8.7472,0.0056
8.75,-0.0075
8.7528,0.0138
8.7556,-0.0033
8.7583,0.0017
8.7611,0.0327
8.7639,0.0081
8.7667,0.0122
8.7694,0.039
8.7722,0.0139
8.775,0.0375
8.7778,0.0384
8.7806,0.0354
8.7833,0.0591
8.7861,0.0411
8.7889,0.0548
8.7917,0.0616
8.7944,0.0593
8.7972,0.0692
8.8,0.0565
8.8028,0.0697
8.8056,0.07
8.8083,0.0663
8.8111,0.0832
8.8139,0.0844
8.8167,0.0929
8.8194,0.0843
8.8222,0.084
8.825,0.0868
8.8278,0.0898
8.8306,0.0823
8.8333,0.0778
8.8361,0.0683
8.8389,0.0785
8.8417,0.0619
8.8444,0.0658
8.8472,0.0715
8.85,0.0594
8.8528,0.0663
8.8556,0.0569
8.8583,0.0558
8.8611,0.0376
8.8639,0.0564
8.8667,0.0648
8.8694,0.0378
8.8722,0.038
8.875,0.032
8.8778,0.0271
8.8806,0.0325
8.8833,0.0169
8.8861,0.0462
8.8889,0.0025
8.8917,0.0012
8.8944,0.0241
8.8972,-0.0135
8.9,0.0066
8.9028,0.0019
8.9056,-0.0193
8.9083,-0.0004
8.9111,-0.0105
8.9139,0.0008
8.9167,-0.006
8.9194,0.0065
8.9222,0.013
8.925,-0.0006
8.9278,0.0056
8.9306,-0.0007
8.9333,0.0057
8.9361,-0.0064
8.9389,0.0087
8.9417,-0.0145
8.9444,-0.0132
8.9472,-0.0087
8.95,-0.0113
8.9528,-0.003
8.9556,0.0135
8.9583,0.0046
8.9611,-0.0205
8.9639,-0.0199
8.9667,-0.0278
8.9694,-0.0403
8.9722,-0.0393
8.975,-0.0424
8.9778,-0.0241
8.9806,-0.0008
8.9833,0.0519
8.9861,0.1823
8.9889,0.2819
8.9917,0.3709
8.9944,0.4757
8.9972,0.5618
9.0,0.6451
9.0028,0.7101
9.0056,0.748
9.0083,0.7843
9.0111,0.8083
9.0139,0.8
9.0167,0.7936
9.0194,0.7792
9.0222,0.726
9.025,0.6658
9.0278,0.6194
9.0306,0.5259
9.0333,0.4428
9.0361,0.3331
9.0389,0.2429
9.0417,0.129
9.0444,0.015
9.0472,-0.0292
9.05,-0.0437
9.0528,-0.0742
9.0556,-0.0896
9.0583,-0.0948
9.0611,-0.1092
9.0639,-0.1164
9.0667,-0.1083
9.0694,-0.1081
9.0722,-0.102
9.075,-0.0955
9.0778,-0.1005
9.0806,-0.0663
9.0833,-0.0512
9.0861,-0.0228
9.0889,0.002
9.0917,-0.007
9.0944,-0.0093
9.0972,-0.0025
9.1,0.0028
9.1028,-0.0061
9.1056,-0.0027
9.1083,-0.0138
9.1111,0.0015
9.1139,-0.0028
9.1167,-0.0163
9.1194,-0.0008
9.1222,-0.0062
9.125,-0.006
9.1278,-0.0092
9.1306,-0.0073
9.1333,-0.0141
9.1361,-0.0034
9.1389,-0.0031
9.1417,-0.0228
9.1444,0.0036
9.1472,0.004
9.15,0.0267
9.1528,0.0085
9.1556,-0.0103
9.1583,-0.0109
9.1611,0.0199
9.1639,-0.0069
9.1667,-0.0027
9.1694,-0.0028
9.1722,0.0081
9.175,-0.003
9.1778,0.0001
9.1806,0.0014
9.1833,-0.0053
9.1861,-0.0136
9.1889,-0.0047
9.1917,-0.0144
9.1944,0.0096
9.1972,0.0227
9.2,0.0239
9.2028,0.0106
9.2056,0.0241
9.2083,0.0386
9.2111,0.0317
9.2139,0.0461
9.2167,0.0426
9.2194,0.0468
9.2222,0.0751
9.225,0.0593
9.2278,0.074
9.2306,0.0735
9.2333,0.0982
9.2361,0.087
9.2389,0.086
9.2417,0.1151
9.2444,0.1255
9.2472,0.1183
9.25,0.1085
9.2528,0.1138
9.2556,0.1233
9.2583,0.1181
9.2611,0.1154
9.2639,0.1322
9.2667,0.1182
9.2694,0.1494
9.2722,0.1585
9.275,0.1342
9.2778,0.1413
9.2806,0.1367
9.2833,0.1385
9.2861,0.1542
9.2889,0.1511
9.2917,0.1393
9.2944,0.1307
9.2972,0.1575
9.3,0.1526
9.3028,0.1598
9.3056,0.1437
9.3083,0.1446
9.3111,0.1304
9.3139,0.1561
9.3167,0.1394
9.3194,0.129
9.3222,0.1454
9.325,0.1418
9.3278,0.1362
9.3306,0.1387
9.3333,0.1249
9.3361,0.1552
9.3389,0.1386
9.3417,0.1166
9.3444,0.1214
9.3472,0.1112
9.35,0.1184
9.3528,0.0958
9.3556,0.0933
9.3583,0.0829
9.3611,0.0873
9.3639,0.0952
9.3667,0.0637
9.3694,0.0523
9.3722,0.0608
9.375,0.0274
9.3778,0.0524
9.3806,0.0641
9.3833,0.0436
9.3861,0.0335
9.3889,0.0252
9.3917,0.0327
9.3944,0.0258
9.3972,0.0129
9.4,-0.0018
9.4028,0.0149
9.4056,0.0096
9.4083,0.0009
9.4111,-0.0124
9.4139,0.0087
9.4167,-0.0008
9.4194,0.0039
9.4222,0.0019
9.425,0.0088
9.4278,0.0071
9.4306,0.0052
9.4333,-0.0088
9.4361,0.0027
9.4389,0.0041
9.4417,-0.0053
9.4444,-0.0142
9.4472,-0.0149
9.45,0.008
9.4528,-0.009
9.4556,-0.0057
9.4583,-0.0008
9.4611,0.023
9.4639,-0.0024
9.4667,0.0143
9.4694,-0.0011
9.4722,0.0021
9.475,-0.0059
9.4778,0.0133
9.4806,0.0028
9.4833,-0.0102
9.4861,-0.0039
9.4889,-0.004
9.4917,0.0082
9.4944,0.0054
9.4972,-0.0022
9.5,0.0065
9.5028,0.006
9.5056,-0.0019
9.5083,0.0131
9.5111,-0.0065
9.5139,0.0114
9.5167,0.0024
9.5194,0.003
9.5222,0.007
9.525,0.0121
9.5278,-0.0177
9.5306,-0.0061
9.5333,-0.0151
9.5361,-0.0163
9.5389,0.0013
9.5417,-0.0081
9.5444,-0.0087
9.5472,0.0073
9.55,0.003
9.5528,-0.008
9.5556,-0.005
9.5583,0.0144
9.5611,0.0236
9.5639,0.0167
9.5667,0.0151
9.5694,0.004
9.5722,-0.0132
9.575,-0.0006
9.5778,0.0006
9.5806,0.0107
9.5833,0.0183
9.5861,-0.0023
9.5889,0.0006
9.5917,0.0103
9.5944,0.0112
9.5972,0.0031
9.6,0.0074
9.6028,-0.0035
9.6056,-0.0129
9.6083,0.0085
9.6111,0.0105
9.6139,0.0017
9.6167,-0.0122
9.6194,0.008
9.6222,0.0142
9.625,-0.0014
9.6278,0.0111
9.6306,0.007
9.6333,-0.0056
9.6361,0.0032
9.6389,-0.0198
9.6417,-0.0106
9.6444,-0.0018
9.6472,0.0113
9.65,0.0037
9.6528,-0.0216
9.6556,0.009
9.6583,0.0036
9.6611,-0.0107
9.6639,-0.0271
9.6667,0.0145
9.6694,-0.0015
9.6722,0.0063
9.675,-0.0162
9.6778,0.0173
9.6806,0.0019
9.6833,-0.0133
9.6861,0.0023
9.6889,-0.0065
9.6917,-0.0066
9.6944,0.0089
9.6972,0.0037
9.7,0.0149
9.7028,0.0308
9.7056,-0.001
9.7083,0.0075
9.7111,0.0057
9.7139,0.0056
9.7167,-0.0112
9.7194,0.0054
9.7222,-0.003
9.725,-0.0009
9.7278,-0.0106
9.7306,-0.0107
9.7333,-0.0053
9.7361,0.0182
9.7389,0.013
9.7417,-0.0085
9.7444,-0.0045
9.7472,-0.0106
9.75,0.0006
9.7528,0.0025
9.7556,0.0102
9.7583,-0.0002
9.7611,0.0076
9.7639,-0.0123
9.7667,0.005
9.7694,-0.0065
9.7722,-0.0034
9.775,-0.0002
9.7778,-0.0031
9.7806,0.0017
9.7833,-0.0112
9.7861,0.0198
9.7889,-0.0022
9.7917,-0.0033
9.7944,0.0006
9.7972,-0.0264
9.8,-0.0194
9.8028,-0.0097
9.8056,0.0087
9.8083,0.0003
9.8111,0.0241
9.8139,0.0177
9.8167,0.0343
9.8194,0.0482
9.8222,0.0506
9.825,0.0489
9.8278,0.0469
9.8306,0.0212
9.8333,0.0519
9.8361,0.0537
9.8389,0.0729
9.8417,0.062
9.8444,0.0539
9.8472,0.0786
9.85,0.0555
9.8528,0.0829
9.8556,0.0869
9.8583,0.0712
9.8611,0.0832
9.8639,0.0844
9.8667,0.067
9.8694,0.0783
9.8722,0.0875
9.875,0.0731
9.8778,0.0707
9.8806,0.0829
9.8833,0.0789
9.8861,0.0913
9.8889,0.0724
9.8917,0.0809
9.8944,0.0471
9.8972,0.0783
9.9,0.0804
9.9028,0.0776
9.9056,0.0508
9.9083,0.0601
9.9111,0.0526
9.9139,0.0561
9.9167,0.0443
9.9194,0.0324
9.9222,0.0583
9.925,0.0499
9.9278,0.0382
9.9306,0.0405
9.9333,0.0194
9.9361,0.0059
9.9389,0.0211
9.9417,0.0195
9.9444,0.0104
9.9472,0.0012
9.95,0.0124
9.9528,-0.0004
9.9556,-0.0025
9.9583,-0.0026
9.9611,-0.009
9.9639,-0.0052
9.9667,-0.0039
9.9694,-0.0045
9.9722,0.0022
9.975,0.01
9.9778,0.0142
9.9806,-0.0004
9.9833,0.0132
9.9861,-0.0033
9.9889,0.0011
9.9917,0.0151
9.9944,0.0086
9.9972,0.0156
10.0,0.0165
10.0028,-0.0067
10.0056,0.0077
10.0083,0.0001
10.0111,-0.0105
10.0139,-0.005
10.0167,-0.0
10.0194,-0.0405
10.0222,-0.038
10.025,-0.0462
10.0278,-0.0199
10.0306,-0.0156
10.0333,0.0372
10.0361,0.1539
10.0389,0.2442
10.0417,0.3542
10.0444,0.445
10.0472,0.5365
10.05,0.6308
10.0528,0.6886
10.0556,0.7343
10.0583,0.7689
10.0611,0.7939
10.0639,0.7934
10.0667,0.7849
10.0694,0.7723
10.0722,0.7412
10.075,0.6709
10.0778,0.6244
10.0806,0.5216
10.0833,0.4644
10.0861,0.3729
10.0889,0.248
10.0917,0.1546
10.0944,0.0173
10.0972,-0.0039
10.1,-0.0353
10.1028,-0.0745
10.1056,-0.0809
10.1083,-0.1089
10.1111,-0.1137
10.1139,-0.1098
10.1167,-0.1062
10.1194,-0.1222
10.1222,-0.1145
10.125,-0.0917
10.1278,-0.0768
10.1306,-0.0584
10.1333,-0.0423
10.1361,0.0002
10.1389,0.01
10.1417,0.0039
10.1444,0.0085
10.1472,0.0091
10.15,-0.0017
10.1528,0.0114
10.1556,-0.0067
10.1583,0.0168
10.1611,-0.0102
10.1639,-0.0011
10.1667,-0.016
10.1694,0.0046
10.1722,0.004
10.175,-0.0073
10.1778,-0.0001
10.1806,0.0064
10.1833,-0.0035
10.1861,-0.0087
10.1889,0.0105
10.1917,0.0013
10.1944,-0.005
10.1972,-0.0034
10.2,0.0116
10.2028,0.0016
10.2056,0.0071
10.2083,0.014
10.2111,-0.0075
10.2139,-0.0089
10.2167,0.0032
10.2194,0.0194
10.2222,0.0056
10.225,-0.0001
10.2278,0.0098
10.2306,-0.0049
10.2333,-0.0058
10.2361,-0.001
10.2389,-0.014
10.2417,0.0028
10.2444,0.0136
10.2472,0.0139
10.25,0.0175
10.2528,0.0257
10.2556,0.0379
10.2583,0.0279
10.2611,0.0369
10.2639,0.0516
10.2667,0.0569
10.2694,0.0515
10.2722,0.0633
10.275,0.0678
10.2778,0.0839
10.2806,0.1021
10.2833,0.0757
10.2861,0.0916
10.2889,0.0982
10.2917,0.1034
10.2944,0.0983
10.2972,0.1107
10.3,0.121
10.3028,0.1219
10.3056,0.1167
10.3083,0.1216
10.3111,0.1287
10.3139,0.1214
10.3167,0.1294
10.3194,0.1297
10.3222,0.1327
10.325,0.1371
10.3278,0.1247
10.3306,0.1422
10.3333,0.1518
10.3361,0.1358
10.3389,0.1499
10.3417,0.1398
10.3444,0.1687
10.3472,0.1534
10.35,0.132
10.3528,0.1394
10.3556,0.1446
10.3583,0.137
10.3611,0.1428
10.3639,0.1425
10.3667,0.1418
10.3694,0.141
10.3722,0.1329
10.375,0.13
10.3778,0.1476
10.3806,0.1258
10.3833,0.1322
10.3861,0.1268
10.3889,0.1233
10.3917,0.1381
10.3944,0.119
10.3972,0.1182
10.4,0.1039
10.4028,0.0904
10.4056,0.0898
10.4083,0.0771
10.4111,0.0912
10.4139,0.0793
10.4167,0.0625
10.4194,0.065
10.4222,0.0556
10.425,0.0541
10.4278,0.0483
10.4306,0.0333
10.4333,0.0412
10.4361,0.0335
10.4389,0.0422
10.4417,0.0019
10.4444,-0.0028
10.4472,0.0033
10.45,-0.0097
10.4528,-0.0044
10.4556,0.0074
10.4583,0.0089
10.4611,-0.0009
10.4639,0.0009
10.4667,0.0121
10.4694,-0.0055
10.4722,0.0006
10.475,0.0073
10.4778,-0.0121
10.4806,0.0004
10.4833,0.0167
10.4861,0.0054
10.4889,0.0051
10.4917,-0.0091
10.4944,0.0049
10.4972,-0.0029
10.5,0.0007
10.5028,0.0012
10.5056,0.0047
10.5083,0.0018
10.5111,0.001
10.5139,0.0031
10.5167,0.0288
10.5194,-0.0025
10.5222,0.0237
10.525,-0.0019
10.5278,-0.0059
10.5306,0.0138
10.5333,-0.0033
10.5361,0.0169
10.5389,0.0185
10.5417,-0.0175
10.5444,-0.0175
10.5472,0.0087
10.55,-0.0001
10.5528,0.0034
10.5556,-0.0028
10.5583,0.0106
10.5611,-0.0073
10.5639,0.0013
10.5667,-0.0137
10.5694,-0.0069
10.5722,0.0133
10.575,-0.0036
10.5778,-0.011
10.5806,-0.0108
10.5833,-0.0003
10.5861,-0.0094
10.5889,0.014
10.5917,-0.0086
10.5944,-0.0169
10.5972,-0.0063
10.6,0.0017
10.6028,0.0012
10.6056,-0.0055
10.6083,0.0059
10.6111,-0.0042
10.6139,-0.0084
10.6167,-0.0121
10.6194,0.0093
10.6222,-0.0236
10.625,-0.0015
10.6278,0.0119
10.6306,-0.003
10.6333,-0.0148
10.6361,0.0039
10.6389,0.0193
10.6417,0.0067
10.6444,0.0078
10.6472,0.0058
10.65,-0.019
10.6528,0.0125
10.6556,-0.0133
10.6583,0.0194
10.6611,-0.0101
10.6639,0.0083
10.6667,0.0139
10.6694,-0.0182
10.6722,0.0099
10.675,-0.015
10.6778,-0.0085
10.6806,0.0046
10.6833,0.0035
10.6861,-0.0145
10.6889,0.014
10.6917,-0.0113
10.6944,-0.0107
10.6972,-0.003
10.7,-0.0018
10.7028,-0.0058
10.7056,-0.0063
10.7083,0.0035
10.7111,0.0194
10.7139,-0.0128
10.7167,-0.0013
10.7194,0.006
10.7222,0.0159
10.725,0.0084
10.7278,-0.0194
10.7306,0.0138
10.7333,0.007
10.7361,0.0083
10.7389,0.0034
10.7417,-0.0014
10.7444,-0.0017
10.7472,0.0042
10.75,0.0086
10.7528,0.0017
10.7556,0.0113
10.7583,-0.0084
10.7611,-0.0
10.7639,-0.0035
10.7667,0.0164
10.7694,0.0021
10.7722,-0.0018
10.775,-0.01
10.7778,0.0163
10.7806,-0.0037
10.7833,-0.0024
10.7861,0.0084
10.7889,-0.0019
10.7917,0.0063
10.7944,-0.013
10.7972,-0.0025
10.8,0.0101
10.8028,-0.0057
10.8056,0.0065
10.8083,0.0137
10.8111,-0.0052
10.8139,0.002
10.8167,-0.0082
10.8194,0.0083
10.8222,0.0013
10.825,0.0091
10.8278,-0.0046
10.8306,0.0157
10.8333,0.0119
10.8361,0.0031
10.8389,0.0023
10.8417,0.0016
10.8444,-0.0095
10.8472,0.014
10.85,-0.011
10.8528,0.0158
10.8556,0.0104
10.8583,0.0233
10.8611,0.0328
10.8639,0.0132
10.8667,0.0227
10.8694,0.0384
10.8722,0.0487
10.875,0.0632
10.8778,0.0503
10.8806,0.056
10.8833,0.0532
10.8861,0.0717
10.8889,0.0499
10.8917,0.0606
10.8944,0.0631
10.8972,0.062
10.9,0.0665
10.9028,0.0751
10.9056,0.0822
10.9083,0.0696
10.9111,0.0652
10.9139,0.0919
10.9167,0.075
10.9194,0.081
10.9222,0.0733
10.925,0.0769
10.9278,0.096
10.9306,0.0726
10.9333,0.0857
10.9361,0.0849
10.9389,0.0597
10.9417,0.0609
10.9444,0.0521
10.9472,0.0667
10.95,0.058
10.9528,0.0602
10.9556,0.0721
10.9583,0.0614
10.9611,0.0382
10.9639,0.0348
10.9667,0.0497
10.9694,0.0291
10.9722,0.0505
10.975,0.0258
10.9778,0.0351
10.9806,0.0224
10.9833,0.0166
10.9861,0.0047
10.9889,0.021
10.9917,0.0054
10.9944,0.0131
10.9972,0.0057
11.0,0.0093
11.0028,-0.0006
11.0056,-0.0207
11.0083,0.0036
11.0111,0.0138
11.0139,0.0024
11.0167,-0.0058
11.0194,0.0049
11.0222,0.0075
11.025,-0.0016
11.0278,0.0037
11.0306,-0.004
11.0333,0.0104
11.0361,-0.0017
11.0389,0.0018
11.0417,-0.0125
11.0444,0.0113
11.0472,0.0053
11.05,0.0078
11.0528,0.004
11.0556,0.0074
11.0583,0.0189
11.0611,-0.025
11.0639,-0.0319
11.0667,-0.0366
11.0694,-0.0478
11.0722,-0.0203
11.075,-0.0206
11.0778,0.0033
11.0806,0.0793
11.0833,0.2016
11.0861,0.3088
11.0889,0.4015
11.0917,0.4933
11.0944,0.5673
11.0972,0.6313
11.1,0.7103
11.1028,0.7358
11.1056,0.7702
11.1083,0.7927
11.1111,0.8061
11.1139,0.7899
11.1167,0.7363
11.1194,0.7222
11.1222,0.6667
11.125,0.5905
11.1278,0.5074
11.1306,0.4124
11.1333,0.3257
11.1361,0.2063
11.1389,0.1243
11.1417,0.0059
11.1444,-0.0278
11.1472,-0.0384
11.15,-0.0848
11.1528,-0.0953
11.1556,-0.098
11.1583,-0.1282
11.1611,-0.1001
11.1639,-0.1132
11.1667,-0.1051
11.1694,-0.1063
11.1722,-0.0993
11.175,-0.0742
11.1778,-0.0311
11.1806,-0.0219
11.1833,0.0053
11.1861,0.0034
11.1889,0.0039
11.1917,-0.0155
11.1944,0.0129
11.1972,-0.0098
11.2,-0.0062
11.2028,0.0117
11.2056,-0.0049
11.2083,0.0064
11.2111,-0.0084
11.2139,0.0027
11.2167,0.0068
11.2194,0.0147
11.2222,-0.0046
11.225,-0.0093
11.2278,-0.0092
11.2306,-0.0044
11.2333,-0.0033
11.2361,0.0027
11.2389,0.0003
11.2417,0.0051
11.2444,0.0146
11.2472,-0.003
11.25,0.0104
11.2528,-0.0022
11.2556,0.0079
11.2583,0.0003
11.2611,-0.0015
11.2639,-0.0042
11.2667,-0.0024
11.2694,0.0054
11.2722,-0.0041
11.275,0.0007
11.2778,0.0015
11.2806,0.0033
11.2833,-0.0169
11.2861,0.0063
11.2889,0.0114
11.2917,0.0066
11.2944,-0.0077
11.2972,0.0334
11.3,0.028
11.3028,0.0368
11.3056,0.0321
11.3083,0.0338
11.3111,0.0703
11.3139,0.0558
11.3167,0.053
11.3194,0.0649
11.3222,0.0752
11.325,0.069
11.3278,0.0788
11.3306,0.0922
11.3333,0.0893
11.3361,0.0889
11.3389,0.0967
11.3417,0.1106
11.3444,0.1113
11.3472,0.0983
11.35,0.1301
11.3528,0.1186
11.3556,0.1269
11.3583,0.1101
11.3611,0.1338
11.3639,0.1219
11.3667,0.1229
11.3694,0.1601
11.3722,0.1305
11.375,0.1375
11.3778,0.1561
11.3806,0.1513
11.3833,0.1551
11.3861,0.1531
11.3889,0.145
11.3917,0.1561
11.3944,0.1559
11.3972,0.1435
11.4,0.1448
11.4028,0.1553
11.4056,0.1518
11.4083,0.157
11.4111,0.1458
11.4139,0.1358
11.4167,0.1484
11.4194,0.1379
11.4222,0.1284
11.425,0.137
11.4278,0.1178
11.4306,0.1265
11.4333,0.1238
11.4361,0.1197
11.4389,0.1176
11.4417,0.1309
11.4444,0.0996
11.4472,0.0916
11.45,0.102
11.4528,0.1024
11.4556,0.0822
11.4583,0.0832
11.4611,0.0882
11.4639,0.0718
11.4667,0.0683
11.4694,0.0662
11.4722,0.0647
11.475,0.0469
11.4778,0.0495
11.4806,0.0426
11.4833,0.0363
11.4861,0.0307
11.4889,0.0198
11.4917,0.0319
11.4944,0.0139
11.4972,0.0008
11.5,-0.0095
11.5028,-0.0199
11.5056,0.0093
11.5083,0.0137
11.5111,-0.0079
11.5139,-0.0053
11.5167,-0.0077
11.5194,0.0203
11.5222,-0.0032
11.525,-0.0014
11.5278,0.003
11.5306,0.0034
11.5333,0.0175
11.5361,0.0203
11.5389,-0.0054
11.5417,0.0002
11.5444,0.0078
11.5472,-0.0016
11.55,-0.0127
11.5528,0.0031
11.5556,0.006
11.5583,-0.0076
11.5611,-0.0116
11.5639,0.0091
11.5667,0.02
11.5694,-0.0175
11.5722,-0.0078
11.575,-0.0048
11.5778,0.001
11.5806,-0.0087
11.5833,0.0047
11.5861,-0.0093
11.5889,0.0133
11.5917,-0.0111
11.5944,0.0183
11.5972,0.0025
11.6,0.0015
11.6028,0.0084
11.6056,0.008
11.6083,-0.0091
11.6111,-0.0102
11.6139,-0.0207
11.6167,-0.0072
11.6194,0.0082
11.6222,0.0207
11.625,-0.004
11.6278,-0.0038
11.6306,-0.0005
11.6333,0.0047
11.6361,-0.002
11.6389,-0.0125
11.6417,-0.0066
11.6444,-0.0153
11.6472,0.0096
11.65,0.0066
11.6528,-0.0041
11.6556,-0.0093
11.6583,0.0198
11.6611,-0.0139
11.6639,-0.0041
11.6667,0.0205
11.6694,0.0103
11.6722,-0.0193
11.675,0.0056
11.6778,0.0142
11.6806,-0.0031
11.6833,-0.0024
11.6861,-0.0109
11.6889,0.0015
11.6917,0.0106
11.6944,-0.0019
11.6972,0.004
11.7,-0.0052
11.7028,0.0026
11.7056,0.017
11.7083,0.0049
11.7111,0.0006
11.7139,-0.0058
11.7167,-0.0004
11.7194,-0.0123
11.7222,0.0019
11.725,-0.0155
11.7278,0.0061
11.7306,0.0046
11.7333,0.0117
11.7361,-0.0163
11.7389,0.0053
11.7417,0.0093
11.7444,-0.0001
11.7472,0.0039
11.75,0.0062
11.7528,0.0019
11.7556,-0.0059
11.7583,-0.0024
11.7611,0.0013
11.7639,0.0066
11.7667,-0.0009
11.7694,0.0188
11.7722,-0.0086
11.775,0.0044
11.7778,0.0001
11.7806,-0.0098
11.7833,-0.0003
11.7861,-0.0001
11.7889,-0.0008
11.7917,0.0081
11.7944,0.026
11.7972,-0.0166
11.8,-0.0047
11.8028,-0.0007
11.8056,-0.0055
11.8083,-0.0055
11.8111,0.0176
11.8139,-0.0089
11.8167,0.0146
11.8194,-0.0137
11.8222,0.0051
11.825,0.0126
11.8278,0.0017
11.8306,0.002
11.8333,-0.0009
11.8361,-0.004
11.8389,0.0083
11.8417,0.0077
11.8444,-0.013
11.8472,0.0094
11.85,0.0117
11.8528,0.0321
11.8556,0.0157
11.8583,0.0108
11.8611,-0.0249
11.8639,-0.0037
11.8667,0.0006
11.8694,-0.0014
11.8722,-0.0138
11.875,-0.0032
11.8778,-0.0066
11.8806,0.001
11.8833,0.0003
11.8861,-0.0089
11.8889,-0.0141
11.8917,0.0011
11.8944,-0.0058
11.8972,0.0122
11.9,0.0194
11.9028,0.0101
11.9056,0.0281
11.9083,0.0171
11.9111,0.031
11.9139,0.0395
11.9167,0.0409
11.9194,0.0345
11.9222,0.0566
11.925,0.0447
11.9278,0.0437
11.9306,0.0442
11.9333,0.0768
11.9361,0.0826
11.9389,0.0741
11.9417,0.0541
11.9444,0.0806
11.9472,0.0788
11.95,0.0716
11.9528,0.0785
11.9556,0.0613
11.9583,0.086
11.9611,0.0873
11.9639,0.0757
11.9667,0.0557
11.9694,0.0868
11.9722,0.0731
11.975,0.0833
11.9778,0.066
11.9806,0.0823
11.9833,0.0693
11.9861,0.0707
11.9889,0.0539
11.9917,0.0727
11.9944,0.0468
11.9972,0.0638
12.0,0.0551
12.0028,0.057
12.0056,0.0351
12.0083,0.0353
12.0111,0.0234
12.0139,0.0236
12.0167,0.0299
12.0194,0.0219
12.0222,0.0189
12.025,0.0237
12.0278,0.0203
12.0306,-0.013
12.0333,-0.005
12.0361,-0.0144
12.0389,0.0107
12.0417,0.0109
12.0444,0.0202
12.0472,-0.0093
12.05,0.0103
12.0528,-0.0041
12.0556,0.0074
12.0583,0.0042
12.0611,0.0014
12.0639,-0.0029
12.0667,0.0065
12.0694,-0.0066
12.0722,0.0125
12.075,-0.0118
12.0778,0.0011
12.0806,-0.0039
12.0833,0.0001
12.0861,-0.0036
12.0889,-0.0009
12.0917,0.0079
12.0944,-0.0193
12.0972,-0.0337
12.1,-0.0392
12.1028,-0.0544
12.1056,-0.0333
12.1083,0.0044
12.1111,0.003
12.1139,0.1152
12.1167,0.2361
12.1194,0.3554
12.1222,0.4529
12.125,0.5494
12.1278,0.6276
12.1306,0.6868
12.1333,0.7456
12.1361,0.779
12.1389,0.7992
12.1417,0.796
12.1444,0.7911
12.1472,0.7595
12.15,0.7076
12.1528,0.6281
12.1556,0.5756
12.1583,0.4736
12.1611,0.3795
12.1639,0.286
12.1667,0.1629
12.1694,0.0498
12.1722,-0.0235
12.175,-0.0463
12.1778,-0.0647
12.1806,-0.0841
12.1833,-0.0922
12.1861,-0.1333
12.1889,-0.1279
12.1917,-0.1241
12.1944,-0.1253
12.1972,-0.1023
12.2,-0.0945
12.2028,-0.0871
12.2056,-0.0578
12.2083,-0.0156
12.2111,0.0032
12.2139,0.0089
12.2167,0.0083
12.2194,-0.0078
12.2222,0.0022
12.225,0.0077
12.2278,-0.0001
12.2306,-0.014
12.2333,-0.0081
12.2361,-0.0131
12.2389,-0.0128
12.2417,0.0059
12.2444,-0.0003
12.2472,0.002
12.25,-0.0102
12.2528,0.0055
12.2556,-0.0137
12.2583,0.0004
12.2611,-0.0
12.2639,0.0021
12.2667,-0.0229
12.2694,0.0051
12.2722,-0.0032
12.275,0.0039
12.2778,-0.0032
12.2806,-0.0023
12.2833,0.0111
12.2861,0.0047
12.2889,0.0116
12.2917,0.0066
12.2944,-0.0037
12.2972,0.0066
12.3,0.0125
12.3028,-0.0069
12.3056,0.0081
12.3083,-0.0007
12.3111,0.0103
12.3139,0.0207
12.3167,0.0169
12.3194,0.0411
12.3222,0.0383
12.325,0.0356
12.3278,0.0598
12.3306,0.0631
12.3333,0.0487
12.3361,0.0597
12.3389,0.0635
12.3417,0.0833
12.3444,0.0598
12.3472,0.0945
12.35,0.0876
12.3528,0.0993
12.3556,0.0927
12.3583,0.1018
12.3611,0.0905
12.3639,0.1231
12.3667,0.1259
12.3694,0.124
12.3722,0.1261
12.375,0.1337
12.3778,0.1337
12.3806,0.131
12.3833,0.1588
12.3861,0.1472
12.3889,0.1483
12.3917,0.1353
12.3944,0.1506
12.3972,0.1502
12.4,0.1521
12.4028,0.1338
12.4056,0.1539
12.4083,0.1556
12.4111,0.1464
12.4139,0.139
12.4167,0.1569
12.4194,0.1552
12.4222,0.1341
12.425,0.1365
12.4278,0.1322
12.4306,0.1406
12.4333,0.1371
12.4361,0.1227
12.4389,0.1132
12.4417,0.1301
12.4444,0.1147
12.4472,0.1274
12.45,0.1323
12.4528,0.111
12.4556,0.1038
12.4583,0.1068
12.4611,0.099
12.4639,0.1018
12.4667,0.0915
12.4694,0.0685
12.4722,0.0721
12.475,0.0959
12.4778,0.063
12.4806,0.0432
12.4833,0.0501
12.4861,0.0414
12.4889,0.0437
12.4917,0.0158
12.4944,0.0259
12.4972,0.0085
12.5,0.0124
12.5028,0.0042
12.5056,0.0111
12.5083,-0.0031
12.5111,0.0126
12.5139,-0.0035
12.5167,-0.0014
12.5194,-0.0109
12.5222,-0.0087
12.525,-0.0023
12.5278,-0.0135
12.5306,0.0009
12.5333,-0.0062
12.5361,-0.0162
12.5389,-0.0028
12.5417,-0.0246
12.5444,-0.008
12.5472,0.0089
12.55,0.0121
12.5528,-0.0082
12.5556,0.0064
12.5583,-0.0033
12.5611,-0.0096
12.5639,-0.0063
12.5667,0.0053
12.5694,0.0153
12.5722,0.0137
12.575,0.0049
12.5778,0.0034
12.5806,0.0036
12.5833,0.0076
12.5861,-0.0119
12.5889,-0.0012
12.5917,-0.0066
12.5944,-0.0077
12.5972,0.0024
12.6,-0.0131
12.6028,-0.0041
12.6056,-0.0146
12.6083,-0.0027
12.6111,-0.0148
12.6139,0.0096
12.6167,0.0125
12.6194,-0.0079
12.6222,-0.0014
12.625,-0.0079
12.6278,-0.0017
12.6306,-0.004
12.6333,0.0186
12.6361,0.0172
12.6389,-0.0161
12.6417,-0.0173
12.6444,0.0136
12.6472,0.0002
12.65,-0.0251
12.6528,0.0127
12.6556,0.0061
12.6583,0.011
12.6611,-0.0002
12.6639,0.0124
12.6667,-0.0084
12.6694,0.0106
12.6722,0.0051
12.675,-0.0072
12.6778,-0.0164
12.6806,0.0054
12.6833,0.0119
12.6861,0.0075
12.6889,0.0044
12.6917,0.0146
12.6944,0.0173
12.6972,0.0144
12.7,-0.0164
12.7028,0.0033
12.7056,-0.0119
12.7083,0.007
12.7111,0.0053
12.7139,0.0006
12.7167,-0.0019
12.7194,-0.0031
12.7222,0.0132
12.725,0.0075
12.7278,0.0035
12.7306,-0.0162
12.7333,0.0025
12.7361,-0.0009
12.7389,-0.0085
12.7417,-0.0093
12.7444,-0.0005
12.7472,0.0055
12.75,0.003
12.7528,-0.0096
12.7556,0.0027
12.7583,0.0162
12.7611,0.0005
12.7639,-0.0083
12.7667,0.003
12.7694,0.0015
12.7722,0.0023
12.775,0.0094
12.7778,-0.0089
12.7806,0.0045
12.7833,0.0028
12.7861,-0.0053
12.7889,-0.009
12.7917,0.0136
12.7944,-0.0126
12.7972,-0.002
12.8,-0.0012
12.8028,-0.0008
12.8056,-0.0058
12.8083,0.012
12.8111,-0.0169
12.8139,-0.0101
12.8167,0.0126
12.8194,-0.0084
12.8222,0.011
12.825,-0.0067
12.8278,0.0023
12.8306,0.0009
12.8333,0.0216
12.8361,-0.0021
12.8389,-0.0091
12.8417,0.0032
12.8444,-0.0002
12.8472,-0.0009
12.85,-0.0057
12.8528,0.0112
12.8556,-0.0112
12.8583,-0.0259
12.8611,0.0006
12.8639,-0.0069
12.8667,-0.0097
12.8694,-0.0106
12.8722,-0.0119
12.875,0.0142
12.8778,0.0122
12.8806,0.0063
12.8833,0.033
12.8861,-0.0028
12.8889,0.0231
12.8917,0.0095
12.8944,0.0268
12.8972,0.0295
12.9,0.0336
12.9028,0.0403
12.9056,0.0438
12.9083,0.0639
12.9111,0.0496
12.9139,0.0452
12.9167,0.0699
12.9194,0.0515
12.9222,0.0597
12.925,0.0705
12.9278,0.0511
12.9306,0.0868
12.9333,0.0646
12.9361,0.0711
12.9389,0.0912
12.9417,0.0844
12.9444,0.0702
12.9472,0.0817
12.95,0.0868
12.9528,0.0848
12.9556,0.08
12.9583,0.0746
12.9611,0.0829
12.9639,0.0832
12.9667,0.0709
12.9694,0.0597
12.9722,0.0783
12.975,0.0701
12.9778,0.0646
12.9806,0.0752
12.9833,0.0392
12.9861,0.0441
12.9889,0.0526
12.9917,0.0467
12.9944,0.0312
12.9972,0.0278
13.0,0.0341
13.0028,0.0289
13.0056,0.0168
13.0083,0.0123
13.0111,0.0098
13.0139,-0.0005
13.0167,0.0102
13.0194,0.0036
13.0222,-0.0038
13.025,0.0026
13.0278,0.0117
13.0306,-0.0331
13.0333,-0.005
13.0361,-0.0041
13.0389,0.003
13.0417,0.0065
13.0444,0.0052
13.0472,0.0055
13.05,-0.0043
13.0528,0.0158
13.0556,0.0221
13.0583,0.0015
13.0611,-0.009
13.0639,-0.0058
13.0667,0.0072
13.0694,0.001
13.0722,-0.0035
13.075,-0.0088
13.0778,-0.0297
13.0806,-0.0273
13.0833,-0.0209
13.0861,-0.0274
13.0889,-0.0315
13.0917,-0.0053
13.0944,0.0777
13.0972,0.1991
13.1,0.3152
13.1028,0.4015
13.1056,0.5059
13.1083,0.59
13.1111,0.6603
13.1139,0.7274
13.1167,0.7888
13.1194,0.799
13.1222,0.7876
13.125,0.7859
13.1278,0.7702
13.1306,0.7158
13.1333,0.6515
13.1361,0.584
13.1389,0.4769
13.1417,0.3832
13.1444,0.2806
13.1472,0.1861
13.15,0.0291
13.1528,-0.0247
13.1556,-0.0405
13.1583,-0.0707
13.1611,-0.0908
13.1639,-0.092
13.1667,-0.119
13.1694,-0.1153
13.1722,-0.1171
13.175,-0.1233
13.1778,-0.0969
13.1806,-0.0707
13.1833,-0.0463
13.1861,-0.0349
13.1889,-0.0179
13.1917,-0.0048
13.1944,-0.0034
13.1972,0.011
13.2,0.0111
13.2028,-0.0147
13.2056,0.0092
13.2083,0.0073
13.2111,-0.0196
13.2139,0.0011
13.2167,-0.0016
13.2194,-0.0044
13.2222,-0.0065
13.225,0.0027
13.2278,-0.0074
13.2306,0.012
13.2333,0.0038
13.2361,-0.0107
13.2389,-0.0144
13.2417,-0.0247
13.2444,-0.0101
13.2472,-0.0037
13.25,0.0092
13.2528,0.0088
13.2556,-0.012
13.2583,0.012
13.2611,-0.0113
13.2639,0.0048
13.2667,-0.0056
13.2694,0.009
13.2722,0.0156
13.275,0.0004
13.2778,-0.0023
13.2806,0.004
13.2833,0.0057
13.2861,0.0101
13.2889,0.0176
13.2917,-0.0139
13.2944,0.0115
13.2972,0.0426
13.3,0.0074
13.3028,0.0393
13.3056,0.038
13.3083,0.0557
13.3111,0.0481
13.3139,0.0666
13.3167,0.0648
13.3194,0.0809
13.3222,0.0849
13.325,0.0944
13.3278,0.1036
13.3306,0.0863
13.3333,0.0978
13.3361,0.116
13.3389,0.0998
13.3417,0.1284
13.3444,0.096
13.3472,0.1381
13.35,0.1235
13.3528,0.1256
13.3556,0.1357
13.3583,0.1525
13.3611,0.1569
13.3639,0.1407
13.3667,0.1388
13.3694,0.1466
13.3722,0.153
13.375,0.1459
13.3778,0.1566
13.3806,0.1624
13.3833,0.1451
13.3861,0.1713
13.3889,0.1574
13.3917,0.1468
13.3944,0.1593
13.3972,0.1464
13.4,0.1337
13.4028,0.1452
13.4056,0.1411
13.4083,0.1539
13.4111,0.1168
13.4139,0.1304
13.4167,0.1244
13.4194,0.1494
13.4222,0.1299
13.425,0.1177
13.4278,0.1298
13.4306,0.0935
13.4333,0.1112
13.4361,0.0889
13.4389,0.0947
13.4417,0.0958
13.4444,0.0865
13.4472,0.0765
13.45,0.0712
13.4528,0.0671
13.4556,0.0563
13.4583,0.0493
13.4611,0.0562
13.4639,0.0334
13.4667,0.0384
13.4694,0.0252
13.4722,0.0108
13.475,-0.0024
13.4778,-0.0044
13.4806,-0.0215
13.4833,-0.0034
13.4861,-0.0158
13.4889,-0.0069
13.4917,0.0057
13.4944,-0.0231
13.4972,0.0155
13.5,-0.0021
13.5028,0.011
13.5056,0.0001
13.5083,-0.0079
13.5111,0.0025
13.5139,-0.0031
13.5167,-0.0026
13.5194,0.0003
13.5222,0.0001
13.525,0.0092
13.5278,0.0001
13.5306,-0.005
13.5333,-0.0105
13.5361,0.0109
13.5389,-0.0133
13.5417,0.0041
13.5444,0.0049
13.5472,-0.0065
13.55,-0.0119
13.5528,0.0017
13.5556,0.0005
13.5583,0.0015
13.5611,0.008
13.5639,0.0042
13.5667,-0.006
13.5694,0.0189
13.5722,-0.0352
13.575,0.0122
13.5778,0.0073
13.5806,-0.0101
13.5833,0.0003
13.5861,0.01
13.5889,0.0026
13.5917,-0.0078
13.5944,0.003
13.5972,0.0123
13.6,0.0085
13.6028,0.0103
13.6056,-0.0029
13.6083,0.0126
13.6111,-0.0177
13.6139,0.0137
13.6167,0.0005
13.6194,-0.0035
13.6222,-0.0042
13.625,0.0086
13.6278,0.0008
13.6306,-0.0064
13.6333,0.0008
13.6361,0.0222
13.6389,0.0042
13.6417,0.0118
13.6444,-0.0219
13.6472,0.0005
13.65,0.0068
13.6528,0.0162
13.6556,0.0117
13.6583,-0.0108
13.6611,0.007
13.6639,-0.0055
13.6667,0.011
13.6694,-0.0034
13.6722,0.0008
13.675,0.0029
13.6778,0.0186
13.6806,0.0001
13.6833,0.0021
13.6861,-0.0081
13.6889,0.0144
13.6917,0.009
13.6944,-0.0012
13.6972,0.006
13.7,-0.0019
13.7028,0.0028
13.7056,-0.0045
13.7083,0.0013
13.7111,0.0147
13.7139,0.0278
13.7167,-0.0083
13.7194,-0.0117
13.7222,-0.0153
13.725,0.005
13.7278,0.006
13.7306,0.0182
13.7333,0.0178
13.7361,-0.0147
13.7389,-0.0003
13.7417,0.0004
13.7444,-0.0054
13.7472,-0.0217
13.75,0.0196
13.7528,-0.002
13.7556,-0.0004
13.7583,-0.0119
13.7611,-0.0121
13.7639,-0.002
13.7667,0.005
13.7694,-0.0056
13.7722,0.009
13.775,-0.0038
13.7778,-0.01
13.7806,-0.0067
13.7833,-0.0095
13.7861,-0.0081
13.7889,-0.01
13.7917,-0.0013
13.7944,0.0092
13.7972,0.005
13.8,-0.0068
13.8028,-0.0031
13.8056,-0.0115
13.8083,0.0141
13.8111,0.0062
13.8139,0.0004
13.8167,-0.001
13.8194,-0.0083
13.8222,-0.0136
13.825,-0.0065
13.8278,-0.0066
13.8306,-0.0016
13.8333,-0.004
13.8361,-0.01
13.8389,-0.008
13.8417,0.0225
13.8444,0.0084
13.8472,-0.0113
13.85,0.0006
13.8528,0.0055
13.8556,0.0223
13.8583,0.0269
13.8611,0.051
13.8639,0.0419
13.8667,0.0297
13.8694,0.0385
13.8722,0.0632
13.875,0.0612
13.8778,0.036
13.8806,0.0605
13.8833,0.0505
13.8861,0.0546
13.8889,0.0759
13.8917,0.0703
13.8944,0.0815
13.8972,0.0815
13.9,0.0758
13.9028,0.0715
13.9056,0.073
13.9083,0.0903
13.9111,0.0665
13.9139,0.0793
13.9167,0.0742
13.9194,0.062
13.9222,0.0795
13.925,0.0703
13.9278,0.0721
13.9306,0.0573
13.9333,0.0624
13.9361,0.0643
13.9389,0.0576
13.9417,0.0606
13.9444,0.0637
13.9472,0.0588
13.95,0.0681
13.9528,0.0398
13.9556,0.0349
13.9583,0.0331
13.9611,0.0361
13.9639,0.0152
13.9667,0.0148
13.9694,0.027
13.9722,-0.0129
13.975,0.0038
13.9778,0.0112
13.9806,0.0087
13.9833,0.0163
13.9861,0.006
13.9889,-0.0196
13.9917,0.0091
13.9944,0.0026
13.9972,-0.0061
14.0,-0.0095
14.0028,0.0002
14.0056,0.0219
14.0083,-0.0099
14.0111,-0.0022
14.0139,0.0034
14.0167,0.0045
14.0194,-0.0024
14.0222,0.0044
14.025,-0.0024
14.0278,0.0034
14.0306,0.0034
14.0333,-0.0055
14.0361,-0.0251
14.0389,-0.0487
14.0417,-0.0414
14.0444,-0.0277
14.0472,-0.043
14.05,-0.0104
14.0528,0.062
14.0556,0.2005
14.0583,0.3102
14.0611,0.4012
14.0639,0.5163
14.0667,0.6037
14.0694,0.696
14.0722,0.731
14.075,0.7655
14.0778,0.7895
14.0806,0.8149
14.0833,0.7755
14.0861,0.755
14.0889,0.7052
14.0917,0.6248
14.0944,0.5151
14.0972,0.4372
14.1,0.3454
14.1028,0.2109
14.1056,0.0886
14.1083,-0.0014
14.1111,-0.0199
14.1139,-0.0536
14.1167,-0.0816
14.1194,-0.1105
14.1222,-0.1165
14.125,-0.1097
14.1278,-0.1069
14.1306,-0.0988
14.1333,-0.102
14.1361,-0.0821
14.1389,-0.0534
14.1417,-0.0534
14.1444,-0.0301
14.1472,0.0208
14.15,0.0056
14.1528,-0.006
14.1556,0.0067
14.1583,0.0012
14.1611,0.0155
14.1639,-0.0194
14.1667,0.0089
14.1694,-0.0059
14.1722,-0.0049
14.175,-0.0048
14.1778,-0.0033
14.1806,0.0015
14.1833,0.0101
14.1861,0.0061
14.1889,-0.026
14.1917,-0.0181
14.1944,0.009
14.1972,0.0093
14.2,-0.0099
14.2028,0.0076
14.2056,-0.0022
14.2083,-0.0063
14.2111,0.0176
14.2139,0.0044
14.2167,-0.002
14.2194,0.0066
14.2222,-0.0198
14.225,-0.0142
14.2278,-0.0122
14.2306,-0.0011
14.2333,-0.0038
14.2361,-0.0121
14.2389,-0.0003
14.2417,0.002
14.2444,0.0129
14.2472,0.0113
14.25,0.0396
14.2528,0.0292
14.2556,0.0482
14.2583,0.036
14.2611,0.0585
14.2639,0.047
14.2667,0.0753
14.2694,0.0739
14.2722,0.0851
14.275,0.0918
14.2778,0.0782
14.2806,0.0979
14.2833,0.0958
14.2861,0.1257
14.2889,0.1261
14.2917,0.1193
14.2944,0.143
14.2972,0.1196
14.3,0.1446
14.3028,0.1451
14.3056,0.1377
14.3083,0.156
14.3111,0.1588
14.3139,0.1442
14.3167,0.1276
14.3194,0.1505
14.3222,0.1297
14.325,0.1369
14.3278,0.1457
14.3306,0.1599
14.3333,0.1668
14.3361,0.1473
14.3389,0.1447
14.3417,0.1518
14.3444,0.1382
14.3472,0.1471
14.35,0.1513
14.3528,0.1355
14.3556,0.1549
14.3583,0.1437
14.3611,0.1333
14.3639,0.1333
14.3667,0.1118
14.3694,0.1181
14.3722,0.1122
14.375,0.1023
14.3778,0.098
14.3806,0.0946
14.3833,0.1098
14.3861,0.0999
14.3889,0.0751
14.3917,0.0689
14.3944,0.0779
14.3972,0.0639
14.4,0.0749
14.4028,0.0581
14.4056,0.0475
14.4083,0.059
14.4111,0.0302
14.4139,0.0266
14.4167,0.0162
14.4194,0.0069
14.4222,0.0325
14.425,0.0255
14.4278,0.0089
14.4306,0.0025
14.4333,-0.0087
14.4361,0.0028
14.4389,0.0
14.4417,0.0063
14.4444,-0.0112
14.4472,0.0207
14.45,0.0004
14.4528,0.0019
14.4556,-0.0107
14.4583,-0.0256
14.4611,-0.0064
14.4639,0.0246
14.4667,-0.0095
14.4694,0.0078
14.4722,0.0155
14.475,0.0088
14.4778,0.0175
14.4806,0.0025
14.4833,0.0188
14.4861,-0.0005
14.4889,0.0137
14.4917,0.0004
14.4944,-0.0143
14.4972,0.0085
14.5,0.0032
14.5028,-0.0111
14.5056,-0.007
14.5083,-0.024
14.5111,-0.0076
14.5139,-0.0095
14.5167,-0.008
14.5194,-0.0078
14.5222,0.0172
14.525,0.0033
14.5278,-0.0025
14.5306,-0.0044
14.5333,-0.0107
14.5361,0.0085
14.5389,0.0227
14.5417,-0.0152
14.5444,0.016
14.5472,-0.0038
14.55,-0.0059
14.5528,0.0046
14.5556,0.0061
14.5583,0.0078
14.5611,0.0062
14.5639,0.01
14.5667,-0.0022
14.5694,-0.0014
14.5722,0.009
14.575,0.0083
14.5778,-0.0127
14.5806,-0.0024
14.5833,0.0039
14.5861,-0.0004
14.5889,0.0051
14.5917,0.0004
14.5944,0.0037
14.5972,-0.0055
14.6,-0.0301
14.6028,-0.0075
14.6056,-0.0113
14.6083,0.0181
14.6111,-0.0148
14.6139,-0.004
14.6167,-0.001
14.6194,-0.0131
14.6222,0.0034
14.625,0.0123
14.6278,-0.0023
14.6306,0.0066
14.6333,-0.0033
14.6361,0.0062
14.6389,-0.0027
14.6417,-0.0178
14.6444,-0.0144
14.6472,0.0132
14.65,-0.0219
14.6528,0.0122
14.6556,0.0077
14.6583,0.011
14.6611,-0.0122
14.6639,-0.0042
14.6667,0.013
14.6694,-0.0004
14.6722,0.0105
14.675,0.0072
14.6778,0.0165
14.6806,0.0061
14.6833,-0.0095
14.6861,0.0024
14.6889,0.011
14.6917,0.0106
14.6944,-0.0042
14.6972,0.0014
14.7,0.0044
14.7028,-0.0059
14.7056,0.0069
14.7083,-0.0096
14.7111,-0.0122
14.7139,0.0252
14.7167,0.0121
14.7194,-0.0198
14.7222,-0.0057
14.725,-0.0095
14.7278,-0.0077
14.7306,-0.0101
14.7333,-0.0113
14.7361,-0.0053
14.7389,0.007
14.7417,0.0132
14.7444,0.0109
14.7472,-0.0006
14.75,-0.0147
14.7528,0.0016
14.7556,-0.0026
14.7583,-0.008
14.7611,0.0009
14.7639,-0.003
14.7667,-0.0075
14.7694,-0.0102
14.7722,-0.0083
14.775,-0.017
14.7778,-0.001
14.7806,0.0078
14.7833,0.0026
14.7861,0.0101
14.7889,0.0129
14.7917,0.024
14.7944,0.0201
14.7972,0.0197
14.8,0.0321
14.8028,0.0263
14.8056,0.0305
14.8083,0.0506
14.8111,0.0375
14.8139,0.0525
14.8167,0.0652
14.8194,0.0845
14.8222,0.0675
14.825,0.0746
14.8278,0.0754
14.8306,0.0705
14.8333,0.0689
14.8361,0.0665
14.8389,0.0733
14.8417,0.0766
14.8444,0.0786
14.8472,0.0981
14.85,0.0788
14.8528,0.0757
14.8556,0.0866
14.8583,0.0845
14.8611,0.0834
14.8639,0.0701
14.8667,0.0723
14.8694,0.0797
14.8722,0.0619
14.875,0.0638
14.8778,0.0715
14.8806,0.0556
14.8833,0.0558
14.8861,0.064
14.8889,0.0405
14.8917,0.0536
14.8944,0.0516
14.8972,0.0327
14.9,0.0268
14.9028,0.0307
14.9056,0.0249
14.9083,0.0168
14.9111,0.0037
14.9139,-0.0024
14.9167,0.003
14.9194,-0.0109
14.9222,0.0137
14.925,0.0015
14.9278,0.0037
14.9306,0.0039
14.9333,-0.0099
14.9361,0.0074
14.9389,-0.0176
14.9417,-0.0107
14.9444,0.0049
14.9472,0.0092
14.95,-0.0139
14.9528,0.0123
14.9556,-0.0097
14.9583,0.0
14.9611,0.0043
14.9639,-0.0262
14.9667,0.0284
14.9694,-0.013
14.9722,-0.0034
14.975,-0.0021
14.9778,-0.0333
14.9806,-0.0499
14.9833,-0.0389
14.9861,-0.026
14.9889,-0.0116
14.9917,0.0048
14.9944,0.1273
14.9972,0.2561
15.0,0.3632
15.0028,0.4788
15.0056,0.5744
15.0083,0.6604
15.0111,0.7067
15.0139,0.7451
15.0167,0.7814
15.0194,0.7867
15.0222,0.7918
15.025,0.7693
15.0278,0.7445
15.0306,0.6882
15.0333,0.5884
15.0361,0.5018
15.0389,0.3797
15.0417,0.2856
15.0444,0.1661
15.0472,0.0593
15.05,-0.0144
15.0528,-0.0323
15.0556,-0.0716
15.0583,-0.0719
15.0611,-0.1025
15.0639,-0.1208
15.0667,-0.1403
15.0694,-0.1316
15.0722,-0.119
15.075,-0.095
15.0778,-0.0788
15.0806,-0.064
15.0833,-0.0279
15.0861,0.0024
15.0889,-0.001
15.0917,0.0088
15.0944,0.0112
15.0972,0.0084
15.1,-0.0008
15.1028,0.026
15.1056,-0.0067
15.1083,-0.0113
15.1111,-0.0019
15.1139,-0.0127
15.1167,-0.0009
15.1194,-0.0038
15.1222,0.0057
15.125,-0.0002
15.1278,0.0295
15.1306,-0.0025
15.1333,0.0032
15.1361,0.0104
15.1389,0.013
15.1417,-0.0073
15.1444,-0.0101
15.1472,-0.0205
15.15,-0.0123
15.1528,0.0089
15.1556,0.0123
15.1583,0.0075
15.1611,0.0069
15.1639,-0.0015
15.1667,-0.0049
15.1694,-0.0231
15.1722,0.0068
15.175,-0.0004
15.1778,-0.0138
15.1806,0.0016
15.1833,0.0135
15.1861,0.0277
15.1889,0.0174
15.1917,0.0046
15.1944,0.0224
15.1972,0.0426
15.2,0.0433
15.2028,0.0713
15.2056,0.058
15.2083,0.0627
15.2111,0.0787
15.2139,0.085
15.2167,0.0768
15.2194,0.0969
15.2222,0.1096
15.225,0.0957
15.2278,0.0927
15.2306,0.1087
15.2333,0.1234
15.2361,0.1314
15.2389,0.1175
15.2417,0.1094
15.2444,0.1183
15.2472,0.1418
15.25,0.1176
15.2528,0.1534
15.2556,0.1346
15.2583,0.1567
15.2611,0.1443
15.2639,0.1543
15.2667,0.1412
15.2694,0.1685
15.2722,0.1495
15.275,0.145
15.2778,0.1445
15.2806,0.1419
15.2833,0.1642
15.2861,0.1372
15.2889,0.1332
15.2917,0.1491
15.2944,0.1357
15.2972,0.1496
15.3,0.1357
15.3028,0.1265
15.3056,0.1343
15.3083,0.1277
15.3111,0.1386
15.3139,0.107
15.3167,0.1063
15.3194,0.1232
15.3222,0.0969
15.325,0.1121
15.3278,0.1009
15.3306,0.0905
15.3333,0.0899
15.3361,0.084
15.3389,0.0876
15.3417,0.0798
15.3444,0.0677
15.3472,0.0729
15.35,0.0474
15.3528,0.0375
15.3556,0.0492
15.3583,0.0413
15.3611,0.0236
15.3639,0.0271
15.3667,-0.0037
15.3694,-0.0228
15.3722,0.0005
15.375,0.0023
15.3778,0.0094
15.3806,-0.0046
15.3833,0.0022
15.3861,0.0014
15.3889,0.001
15.3917,0.0002
15.3944,-0.0173
15.3972,-0.0081
15.4,-0.0076
15.4028,0.0019
15.4056,-0.0033
15.4083,0.0089
15.4111,0.0014
15.4139,-0.0021
15.4167,-0.0089
15.4194,-0.0068
15.4222,-0.0105
15.425,-0.0028
15.4278,-0.0046
15.4306,-0.0144
15.4333,-0.0061
15.4361,-0.0158
15.4389,0.0156
15.4417,-0.0047
15.4444,-0.007
15.4472,0.0183
15.45,-0.0083
15.4528,0.0117
15.4556,-0.008
15.4583,-0.0153
15.4611,-0.0005
15.4639,-0.0036
15.4667,-0.0013
15.4694,-0.0034
15.4722,0.0147
15.475,-0.0046
15.4778,0.0028
15.4806,-0.0111
15.4833,-0.0012
15.4861,-0.0008
15.4889,0.0072
15.4917,-0.0055
15.4944,-0.0048
15.4972,0.0097
15.5,-0.0096
15.5028,0.0173
15.5056,-0.0028
15.5083,-0.0052
15.5111,0.0027
15.5139,0.0085
15.5167,-0.0052
15.5194,-0.0148
15.5222,-0.0135
15.525,0.0113
15.5278,0.0121
15.5306,-0.0043
15.5333,-0.0042
15.5361,-0.0027
15.5389,-0.011
15.5417,-0.0089
15.5444,0.005
15.5472,-0.0241
15.55,0.0132
15.5528,0.0192
15.5556,-0.0016
15.5583,-0.0065
15.5611,-0.0035
15.5639,0.0031
15.5667,-0.0108
15.5694,-0.0133
15.5722,-0.0099
15.575,-0.0124
15.5778,-0.0106
15.5806,0.0182
15.5833,-0.0027
15.5861,0.0092
15.5889,-0.004
15.5917,0.0089
15.5944,0.0131
15.5972,0.0135
15.6,0.0081
15.6028,0.0042
15.6056,0.0106
15.6083,-0.0132
15.6111,-0.0107
15.6139,0.0031
15.6167,0.0
15.6194,-0.003
15.6222,-0.0109
15.625,-0.0129
15.6278,0.0032
15.6306,0.0058
15.6333,0.0087
15.6361,0.0109
15.6389,0.0067
15.6417,0.0133
15.6444,-0.0146
15.6472,0.0086
15.65,-0.0101
15.6528,0.004
15.6556,0.0036
15.6583,-0.0078
15.6611,-0.0046
15.6639,-0.001
15.6667,-0.0091
15.6694,-0.0128
15.6722,0.0007
15.675,-0.0002
15.6778,-0.0122
15.6806,-0.0
15.6833,0.005
15.6861,0.0107
15.6889,0.0181
15.6917,-0.0001
15.6944,-0.0112
15.6972,0.0028
15.7,0.0187
15.7028,-0.0004
15.7056,0.0028
15.7083,0.0039
15.7111,-0.0093
15.7139,-0.0045
15.7167,-0.0083
15.7194,0.0076
15.7222,-0.0141
15.725,-0.0044
15.7278,-0.014
15.7306,-0.0057
15.7333,0.0214
15.7361,0.0127
15.7389,0.0307
15.7417,0.0389
15.7444,0.0409
15.7472,0.0424
15.75,0.0557
15.7528,0.0366
15.7556,0.0539
15.7583,0.0638
15.7611,0.0695
15.7639,0.0732
15.7667,0.0777
15.7694,0.07
15.7722,0.0762
15.775,0.0746
15.7778,0.0845
15.7806,0.083
15.7833,0.0809
15.7861,0.0768
15.7889,0.0532
15.7917,0.0841
15.7944,0.062
15.7972,0.095
15.8,0.0681
15.8028,0.0853
15.8056,0.0724
15.8083,0.0819
15.8111,0.0697
15.8139,0.0717
15.8167,0.0679
15.8194,0.0645
15.8222,0.0618
15.825,0.0674
15.8278,0.0474
15.8306,0.0318
15.8333,0.054
15.8361,0.044
15.8389,0.0321
15.8417,0.0361
15.8444,0.0299
15.8472,0.0252
15.85,-0.0063
15.8528,-0.0131
15.8556,0.0042
15.8583,-0.0135
15.8611,-0.0076
15.8639,-0.0111
15.8667,-0.0004
15.8694,-0.0125
15.8722,-0.0221
15.875,-0.0021
15.8778,-0.0172
15.8806,-0.0037
15.8833,-0.0031
15.8861,0.0287
15.8889,-0.0053
15.8917,0.0059
15.8944,-0.0047
15.8972,-0.0035
15.9,0.0133
15.9028,-0.0163
15.9056,-0.0139
15.9083,-0.0062
15.9111,0.0002
15.9139,0.0013
15.9167,-0.0129
15.9194,-0.0528
15.9222,-0.0383
15.925,-0.0462
15.9278,-0.0524
15.9306,-0.0331
15.9333,-0.0021
15.9361,0.127
15.9389,0.2447
15.9417,0.3807
15.9444,0.4623
15.9472,0.5737
15.95,0.6625
15.9528,0.7243
15.9556,0.7525
15.9583,0.7685
15.9611,0.7986
15.9639,0.7947
15.9667,0.7396
15.9694,0.704
15.9722,0.6483
15.975,0.5464
15.9778,0.4668
15.9806,0.384
15.9833,0.2531
15.9861,0.1219
15.9889,0.0155
15.9917,-0.0246
15.9944,-0.0465
15.9972,-0.0744
16.0,-0.0998
16.0028,-0.108
16.0056,-0.1167
16.0083,-0.1134
16.0111,-0.1151
16.0139,-0.101
16.0167,-0.0808
16.0194,-0.0625
16.0222,-0.0526
16.025,-0.025
16.0278,-0.0034
16.0306,-0.0104
16.0333,-0.0172
16.0361,0.0114
16.0389,-0.0205
16.0417,0.0107
16.0444,-0.0039
16.0472,-0.0106
16.05,0.0002
16.0528,0.0037
16.0556,-0.0067
16.0583,0.0011
16.0611,0.0179
16.0639,-0.011
16.0667,-0.0008
16.0694,0.0085
16.0722,-0.0056
16.075,-0.0099
16.0778,-0.0128
16.0806,0.0142
16.0833,0.026
16.0861,0.0091
16.0889,0.0027
16.0917,-0.017
16.0944,0.0032
16.0972,0.0111
16.1,-0.0046
16.1028,0.0021
16.1056,0.006
16.1083,0.0022
16.1111,0.0032
16.1139,-0.0031
16.1167,0.0056
16.1194,-0.0177
16.1222,0.0218
16.125,0.019
16.1278,0.0276
16.1306,0.0377
16.1333,0.0292
16.1361,0.052
16.1389,0.0328
16.1417,0.0575
16.1444,0.0638
16.1472,0.0707
16.15,0.0697
16.1528,0.0888
16.1556,0.0822
16.1583,0.0871
16.1611,0.0909
16.1639,0.0935
16.1667,0.1078
16.1694,0.0876
16.1722,0.1105
16.175,0.107
16.1778,0.1268
16.1806,0.1178
16.1833,0.1267
16.1861,0.1466
16.1889,0.1362
16.1917,0.1403
16.1944,0.1413
16.1972,0.1601
16.2,0.1352
16.2028,0.1599
16.2056,0.1538
16.2083,0.1459
16.2111,0.1543
16.2139,0.1545
16.2167,0.1477
16.2194,0.1556
16.2222,0.1475
16.225,0.1502
16.2278,0.1478
16.2306,0.1387
16.2333,0.146
16.2361,0.1459
16.2389,0.15
16.2417,0.1362
16.2444,0.1256
16.2472,0.1329
16.25,0.1334
16.2528,0.1204
16.2556,0.1254
16.2583,0.1108
16.2611,0.0946
16.2639,0.0807
16.2667,0.0832
16.2694,0.0773
16.2722,0.0872
16.275,0.084
16.2778,0.0659
16.2806,0.0451
16.2833,0.0423
16.2861,0.0598
16.2889,0.0538
16.2917,0.0369
16.2944,0.0241
16.2972,0.0234
16.3,0.0131
16.3028,-0.0006
16.3056,-0.0023
16.3083,0.0183
16.3111,0.0164
16.3139,0.0107
16.3167,-0.0029
16.3194,0.0095
16.3222,-0.0068
16.325,-0.0091
16.3278,0.0075
16.3306,-0.0169
16.3333,0.0181
16.3361,0.0093
16.3389,-0.0046
16.3417,0.0023
16.3444,0.0006
16.3472,-0.0076
16.35,-0.0059
16.3528,-0.0022
16.3556,-0.0161
16.3583,0.0046
16.3611,0.0044
16.3639,0.0056
16.3667,-0.0028
16.3694,0.0031
16.3722,-0.0108
16.375,-0.0036
16.3778,0.0063
16.3806,-0.0063
16.3833,0.0012
16.3861,0.0032
16.3889,0.008
16.3917,0.0111
16.3944,-0.0061
16.3972,0.014
16.4,0.011
16.4028,0.0049
16.4056,0.0093
16.4083,-0.0043
16.4111,0.0063
16.4139,-0.0139
16.4167,-0.0032
16.4194,-0.006
16.4222,0.0022
16.425,-0.0045
16.4278,-0.0103
16.4306,0.008
16.4333,-0.0015
16.4361,0.0117
16.4389,-0.0148
16.4417,0.0225
16.4444,-0.0172
16.4472,-0.01
16.45,0.0073
16.4528,0.0139
16.4556,0.0014
16.4583,0.0112
16.4611,0.0039
16.4639,-0.0138
16.4667,0.0013
16.4694,-0.0024
16.4722,-0.0137
16.475,0.008
16.4778,-0.0151
16.4806,-0.0051
16.4833,-0.0122
16.4861,-0.0088
16.4889,0.0069
16.4917,0.0033
16.4944,0.0046
16.4972,0.0069
16.5,0.0001
16.5028,-0.0073
16.5056,0.0022
16.5083,-0.0084
16.5111,0.0014
16.5139,0.0034
16.5167,0.0153
16.5194,0.0008
16.5222,-0.0103
16.525,0.0158
16.5278,0.0294
16.5306,-0.0124
16.5333,-0.0137
16.5361,-0.0027
16.5389,0.0051
16.5417,-0.0046
16.5444,-0.0124
16.5472,0.0053
16.55,0.0037
16.5528,-0.0072
16.5556,0.0022
16.5583,0.0087
16.5611,0.0024
16.5639,0.0061
16.5667,0.0082
16.5694,0.0051
16.5722,-0.0032
16.575,-0.0089
16.5778,-0.0046
16.5806,-0.0041
16.5833,0.0012
16.5861,0.0083
16.5889,-0.0036
16.5917,-0.0174
16.5944,-0.0064
16.5972,-0.0109
16.6,0.0111
16.6028,-0.0249
16.6056,0.003
16.6083,0.0038
16.6111,0.0282
16.6139,-0.0043
16.6167,0.0139
16.6194,0.005
16.6222,0.0078
16.625,0.0005
16.6278,-0.0034
16.6306,0.0019
16.6333,0.0077
16.6361,0.0157
16.6389,-0.0027
16.6417,0.0011
16.6444,0.0021
16.6472,0.0014
16.65,-0.004
16.6528,0.0004
16.6556,-0.012
16.6583,0.0065
16.6611,0.0185
16.6639,0.006
16.6667,0.0052
16.6694,0.0265
16.6722,0.018
16.675,0.0312
16.6778,0.0134
16.6806,0.0337
16.6833,0.0246
16.6861,0.0467
16.6889,0.0463
16.6917,0.0656
16.6944,0.0634
16.6972,0.0491
16.7,0.0628
16.7028,0.061
16.7056,0.0716
16.7083,0.0628
16.7111,0.0832
16.7139,0.0802
16.7167,0.0683
16.7194,0.0767
16.7222,0.0747
16.725,0.0834
16.7278,0.0952
16.7306,0.0837
16.7333,0.0991
16.7361,0.0814
16.7389,0.0897
16.7417,0.0898
16.7444,0.0816
16.7472,0.0691
16.75,0.0813
16.7528,0.0712
16.7556,0.0529
16.7583,0.0585
16.7611,0.0566
16.7639,0.0505
16.7667,0.0693
16.7694,0.0426
16.7722,0.0319
16.775,0.0413
16.7778,0.0393
16.7806,0.025
16.7833,0.0258
16.7861,0.0159
16.7889,0.0136
16.7917,0.0144
16.7944,-0.009
16.7972,0.0149
16.8,-0.0073
16.8028,-0.0002
16.8056,0.0094
16.8083,-0.0051
16.8111,0.0079
16.8139,-0.0013
16.8167,-0.0002
16.8194,0.0087
16.8222,-0.0129
16.825,0.0163
16.8278,0.0093
16.8306,-0.0023
16.8333,0.0135
16.8361,0.0199
16.8389,0.0067
16.8417,-0.0079
16.8444,-0.0059
16.8472,0.0054
16.85,-0.0068
16.8528,-0.0261
16.8556,-0.0348
16.8583,-0.0362
16.8611,-0.0497
16.8639,-0.0233
16.8667,0.0004
16.8694,0.1439
16.8722,0.2504
16.875,0.3829
16.8778,0.4694
16.8806,0.5721
16.8833,0.6514
16.8861,0.7082
16.8889,0.7425
16.8917,0.8071
16.8944,0.7992
16.8972,0.7795
16.9,0.7694
16.9028,0.7174
16.9056,0.6539
16.9083,0.5531
16.9111,0.4788
16.9139,0.3631
16.9167,0.2539
16.9194,0.1345
16.9222,0.0197
16.925,-0.0239
16.9278,-0.0456
16.9306,-0.0731
16.9333,-0.1048
16.9361,-0.1286
16.9389,-0.1244
16.9417,-0.1121
16.9444,-0.1258
16.9472,-0.0925
16.95,-0.1089
16.9528,-0.074
16.9556,-0.0408
16.9583,-0.0191
16.9611,0.0178
16.9639,0.0042
16.9667,-0.0086
16.9694,-0.0154
16.9722,-0.0042
16.975,0.005
16.9778,-0.0067
16.9806,-0.0083
16.9833,-0.0048
16.9861,0.0085
16.9889,-0.0003
16.9917,-0.0071
16.9944,-0.019
16.9972,0.0085
17.0,0.0189
17.0028,-0.0019
17.0056,0.0072
17.0083,0.0164
17.0111,0.0
17.0139,-0.0042
17.0167,-0.0188
17.0194,0.0122
17.0222,0.0161
17.025,-0.0067
17.0278,0.0169
17.0306,-0.0094
17.0333,0.0025
17.0361,0.0095
17.0389,0.0167
17.0417,0.0117
17.0444,-0.0035
17.0472,-0.0018
17.05,-0.0022
17.0528,0.0139
17.0556,0.0157
17.0583,-0.0004
17.0611,0.0107
17.0639,0.015
17.0667,0.0288
17.0694,0.0248
17.0722,0.0479
17.075,0.0566
17.0778,0.0724
17.0806,0.0524
17.0833,0.0744
17.0861,0.0691
17.0889,0.0786
17.0917,0.0911
17.0944,0.1108
17.0972,0.0901
17.1,0.0927
17.1028,0.1144
17.1056,0.122
17.1083,0.1195
17.1111,0.1211
17.1139,0.1362
17.1167,0.135
17.1194,0.1305
17.1222,0.1476
17.125,0.1327
17.1278,0.1372
17.1306,0.1404
17.1333,0.1246
17.1361,0.146
17.1389,0.1582
17.1417,0.1411
17.1444,0.1342
17.1472,0.1529
17.15,0.1605
17.1528,0.1273
17.1556,0.1635
17.1583,0.1344
17.1611,0.1439
17.1639,0.1505
17.1667,0.1371
17.1694,0.1352
17.1722,0.125
17.175,0.1244
17.1778,0.1369
17.1806,0.1345
17.1833,0.1164
17.1861,0.123
17.1889,0.1355
17.1917,0.108
17.1944,0.1066
17.1972,0.0987
17.2,0.0804
17.2028,0.1099
17.2056,0.0878
17.2083,0.0904
17.2111,0.0737
17.2139,0.0591
17.2167,0.0603
17.2194,0.0547
17.2222,0.0486
17.225,0.0366
17.2278,0.0479
17.2306,0.0228
17.2333,0.0126
17.2361,-0.0005
17.2389,-0.0026
17.2417,0.0276
17.2444,-0.0057
17.2472,0.0099
17.25,-0.0117
17.2528,-0.0077
17.2556,-0.0197
17.2583,-0.001
17.2611,0.0126
17.2639,0.0025
17.2667,-0.0001
17.2694,0.0072
17.2722,0.0069
17.275,-0.0159
17.2778,-0.0049
17.2806,-0.0082
17.2833,-0.0046
17.2861,0.0065
17.2889,-0.0157
17.2917,-0.014
17.2944,-0.0027
17.2972,-0.0153
17.3,-0.0021
17.3028,-0.0029
17.3056,0.012
17.3083,0.0186
17.3111,0.0002
17.3139,0.0001
17.3167,0.0031
17.3194,0.0166
17.3222,-0.0058
17.325,-0.006
17.3278,-0.0038
17.3306,-0.0092
17.3333,-0.0087
17.3361,0.0177
17.3389,-0.007
17.3417,0.0041
17.3444,0.0184
17.3472,-0.0071
17.35,-0.0123
17.3528,0.008
17.3556,0.0062
17.3583,-0.0059
17.3611,-0.0048
17.3639,-0.0055
17.3667,-0.009
17.3694,0.0005
17.3722,-0.0228
17.375,0.0145
17.3778,0.0095
17.3806,0.0071
17.3833,0.0129
17.3861,0.0091
17.3889,0.0024
17.3917,0.0087
17.3944,-0.0113
17.3972,0.022
17.4,0.0114
17.4028,0.0
17.4056,-0.0038
17.4083,-0.0077
17.4111,0.0214
17.4139,0.0044
17.4167,0.0092
17.4194,-0.0132
17.4222,0.0013
17.425,0.0151
17.4278,0.0207
17.4306,0.022
17.4333,0.0017
17.4361,0.0
17.4389,-0.0049
17.4417,-0.0067
17.4444,0.0008
17.4472,0.0107
17.45,-0.0181
17.4528,-0.0104
17.4556,-0.0117
17.4583,-0.002
17.4611,0.0031
17.4639,-0.0073
17.4667,0.0075
17.4694,0.0124
17.4722,-0.0042
17.475,0.0206
17.4778,-0.0084
17.4806,0.001
17.4833,0.0037
17.4861,0.0147
17.4889,-0.0019
17.4917,0.0028
17.4944,-0.0072
17.4972,-0.0187
17.5,-0.0036
17.5028,-0.0008
17.5056,-0.0012
17.5083,0.0067
17.5111,0.0034
17.5139,-0.0054
17.5167,-0.0139
17.5194,-0.0085
17.5222,0.0162
17.525,0.0061
17.5278,0.0045
17.5306,-0.0008
17.5333,-0.0041
17.5361,-0.0093
17.5389,-0.007
17.5417,-0.0116
17.5444,-0.0047
17.5472,-0.0156
17.55,-0.0121
17.5528,-0.0195
17.5556,0.006
17.5583,-0.0148
17.5611,-0.0007
17.5639,0.0088
17.5667,-0.0037
17.5694,0.0067
17.5722,-0.0032
17.575,-0.003
17.5778,-0.0049
17.5806,0.0026
17.5833,-0.0191
17.5861,0.0112
17.5889,-0.0073
17.5917,0.0016
17.5944,-0.0113
17.5972,-0.0255
17.6,-0.0094
17.6028,0.0184
17.6056,0.0241
17.6083,0.0179
17.6111,0.0192
17.6139,0.0365
17.6167,0.0352
17.6194,0.038
17.6222,0.0348
17.625,0.0537
17.6278,0.0695
17.6306,0.0639
17.6333,0.0514
17.6361,0.067
17.6389,0.0763
17.6417,0.0708
17.6444,0.0921
17.6472,0.0901
17.65,0.0417
17.6528,0.0766
17.6556,0.0796
17.6583,0.082
17.6611,0.0813
17.6639,0.0816
17.6667,0.0756
17.6694,0.068
17.6722,0.059
17.675,0.0815
17.6778,0.071
17.6806,0.0783
17.6833,0.0596
17.6861,0.0556
17.6889,0.065
17.6917,0.0785
17.6944,0.0404
17.6972,0.0267
17.7,0.0371
17.7028,0.0575
17.7056,0.042
17.7083,0.0228
17.7111,0.0305
17.7139,0.0237
17.7167,0.0311
17.7194,0.0149
17.7222,0.0241
17.725,0.0058
17.7278,-0.0011
17.7306,-0.0083
17.7333,-0.0133
17.7361,-0.0009
17.7389,0.0163
17.7417,0.0104
17.7444,0.0071
17.7472,-0.0069
17.75,0.0023
17.7528,0.0046
17.7556,0.0058
17.7583,-0.0194
17.7611,0.006
17.7639,0.0033
17.7667,-0.0133
17.7694,-0.0012
17.7722,-0.007
17.775,0.0037
17.7778,-0.0054
17.7806,-0.0027
17.7833,-0.0102
17.7861,0.003
17.7889,-0.002
17.7917,-0.0411
17.7944,-0.0356
17.7972,-0.0458
17.8,-0.0493
17.8028,-0.0251
17.8056,-0.0033
17.8083,0.0865
17.8111,0.2039
17.8139,0.3196
17.8167,0.4249
17.8194,0.5359
17.8222,0.6298
17.825,0.6828
17.8278,0.7352
17.8306,0.7812
17.8333,0.7958
17.8361,0.7912
17.8389,0.7709
17.8417,0.7634
17.8444,0.6934
17.8472,0.6144
17.85,0.5301
17.8528,0.4475
17.8556,0.3295
17.8583,0.2144
17.8611,0.1101
17.8639,-0.0166
17.8667,-0.0407
17.8694,-0.0739
17.8722,-0.0741
17.875,-0.1173
17.8778,-0.104
17.8806,-0.1295
17.8833,-0.1173
17.8861,-0.1255
17.8889,-0.0969
17.8917,-0.0735
17.8944,-0.0663
17.8972,-0.027
17.9,-0.0093
17.9028,-0.0048
17.9056,0.018
17.9083,0.0101
17.9111,-0.0036
17.9139,0.0057
17.9167,-0.0038
17.9194,-0.001
17.9222,-0.0015
17.925,-0.0097
17.9278,0.0194
17.9306,0.0128
17.9333,-0.0137
17.9361,-0.0096
17.9389,-0.0161
17.9417,0.0137
17.9444,-0.0091
17.9472,-0.0082
17.95,0.0009
17.9528,-0.0025
17.9556,0.0105
17.9583,-0.0017
17.9611,-0.0071
17.9639,-0.0061
17.9667,-0.0006
17.9694,0.0068
17.9722,-0.0019
17.975,-0.0028
17.9778,0.0073
17.9806,-0.0033
17.9833,-0.0058
17.9861,0.0122
17.9889,-0.0034
17.9917,-0.0073
17.9944,-0.0119
17.9972,0.0103
18.0,0.0045
18.0028,0.0239
18.0056,0.034
18.0083,0.0341
18.0111,0.0304
18.0139,0.0265
18.0167,0.059
18.0194,0.0759
18.0222,0.0619
18.025,0.0556
18.0278,0.0689
18.0306,0.0811
18.0333,0.0908
18.0361,0.0797
18.0389,0.1045
18.0417,0.1174
18.0444,0.0975
18.0472,0.1358
18.05,0.1304
18.0528,0.1151
18.0556,0.1153
18.0583,0.1169
18.0611,0.1396
18.0639,0.1265
18.0667,0.1342
18.0694,0.144
18.0722,0.1337
18.075,0.1399
18.0778,0.159
18.0806,0.1485
18.0833,0.1483
18.0861,0.1377
18.0889,0.164
18.0917,0.139
18.0944,0.173
18.0972,0.1349
18.1,0.1703
18.1028,0.1403
18.1056,0.154
18.1083,0.1467
18.1111,0.1532
18.1139,0.1415
18.1167,0.143
18.1194,0.1271
18.1222,0.1318
18.125,0.1387
18.1278,0.1072
18.1306,0.1146
18.1333,0.1089
18.1361,0.0991
18.1389,0.1056
18.1417,0.0895
18.1444,0.0946
18.1472,0.0937
18.15,0.0816
18.1528,0.0791
18.1556,0.0547
18.1583,0.0669
18.1611,0.0494
18.1639,0.064
18.1667,0.0483
18.1694,0.0359
18.1722,0.0304
18.175,0.0299
18.1778,0.0067
18.1806,0.0163
18.1833,0.0109
18.1861,-0.0246
18.1889,-0.006
18.1917,-0.011
18.1944,0.007
18.1972,-0.0104
18.2,0.0073
18.2028,0.0135
18.2056,-0.0191
18.2083,0.0189
18.2111,-0.0173
18.2139,-0.0022
18.2167,0.0118
18.2194,0.0078
18.2222,-0.0034
18.225,0.0013
18.2278,0.0059
18.2306,-0.0164
18.2333,0.0023
18.2361,0.0012
18.2389,0.0035
18.2417,0.0026
18.2444,0.0015
18.2472,-0.0081
18.25,-0.0128
18.2528,-0.0033
18.2556,-0.0081
18.2583,0.0178
18.2611,-0.0031
18.2639,-0.0024
18.2667,-0.0077
18.2694,0.0071
18.2722,-0.0046
18.275,0.0024
18.2778,-0.0001
18.2806,-0.0022
18.2833,-0.0075
18.2861,0.0122
18.2889,0.0079
18.2917,0.0015
18.2944,-0.0029
18.2972,-0.0017
18.3,-0.0064
18.3028,0.0067
18.3056,0.0098
18.3083,-0.0029
18.3111,-0.0114
18.3139,-0.0012
18.3167,0.005
18.3194,-0.0097
18.3222,0.0096
18.325,-0.0046
18.3278,0.0062
18.3306,-0.0059
18.3333,0.0043
18.3361,-0.0037
18.3389,0.0153
18.3417,0.0035
18.3444,0.003
18.3472,-0.0006
18.35,0.0102
18.3528,0.004
18.3556,-0.0025
18.3583,-0.0202
18.3611,-0.0177
18.3639,-0.0001
18.3667,-0.0074
18.3694,0.0041
18.3722,-0.008
18.375,0.0064
18.3778,0.0018
18.3806,0.0
18.3833,0.0103
18.3861,0.0047
18.3889,-0.0208
18.3917,0.0122
18.3944,-0.0014
18.3972,0.0072
18.4,0.0106
18.4028,0.0206
18.4056,-0.0088
18.4083,0.0094
18.4111,0.0092
18.4139,0.0074
18.4167,0.0082
18.4194,-0.0018
18.4222,0.0034
18.425,-0.0029
18.4278,-0.0082
18.4306,0.0043
18.4333,0.0065
18.4361,-0.0126
18.4389,-0.0056
18.4417,-0.0198
18.4444,-0.0211
18.4472,-0.0033
18.45,0.0114
18.4528,0.0099
18.4556,-0.0015
18.4583,0.0049
18.4611,-0.0058
18.4639,0.0013
18.4667,-0.0073
18.4694,0.0189
18.4722,-0.0125
18.475,0.0047
18.4778,0.0088
18.4806,0.0106
18.4833,-0.0196
18.4861,0.0067
18.4889,0.0092
18.4917,-0.0062
18.4944,0.0006
18.4972,0.0046
18.5,-0.0004
18.5028,0.0
18.5056,-0.0084
18.5083,-0.0146
18.5111,0.0032
18.5139,-0.0024
18.5167,-0.0054
18.5194,-0.0026
18.5222,0.0022
18.525,0.0045
18.5278,0.006
18.5306,0.0131
18.5333,0.0065
18.5361,-0.0065
18.5389,-0.0138
18.5417,-0.0056
18.5444,0.0187
18.5472,-0.0003
18.55,0.0039
18.5528,-0.0064
18.5556,0.0255
18.5583,0.0259
18.5611,0.0168
18.5639,0.0205
18.5667,0.0289
18.5694,0.0233
18.5722,0.0318
18.575,0.0455
18.5778,0.0538
18.5806,0.0687
18.5833,0.0813
18.5861,0.0499
18.5889,0.0739
18.5917,0.0672
18.5944,0.0712
18.5972,0.0748
18.6,0.0611
18.6028,0.0721
18.6056,0.0666
18.6083,0.078
18.6111,0.0667
18.6139,0.0826
18.6167,0.0973
18.6194,0.103
18.6222,0.0922
18.625,0.0803
18.6278,0.073
18.6306,0.083
18.6333,0.0811
18.6361,0.0735
18.6389,0.0724
18.6417,0.0669
18.6444,0.0604
18.6472,0.0683
18.65,0.068
18.6528,0.0582
18.6556,0.0658
18.6583,0.0333
18.6611,0.0366
18.6639,0.0313
18.6667,0.0414
18.6694,0.0247
18.6722,0.0187
18.675,0.0122
18.6778,0.0058
18.6806,0.0062
18.6833,0.0049
18.6861,0.0055
18.6889,0.001
18.6917,-0.0099
18.6944,0.0042
18.6972,-0.0054
18.7,0.0
18.7028,-0.006
18.7056,-0.0092
18.7083,0.0009
18.7111,-0.0121
18.7139,0.0069
18.7167,0.0081
18.7194,0.0186
18.7222,-0.0015
18.725,-0.0289
18.7278,0.0168
18.7306,0.0002
18.7333,-0.0057
18.7361,0.0029
18.7389,0.0064
18.7417,0.0019
18.7444,0.0061
18.7472,-0.0329
18.75,-0.0197
18.7528,-0.0133
18.7556,-0.0385
18.7583,-0.0408
18.7611,-0.0218
18.7639,-0.0109
18.7667,0.1014
18.7694,0.2178
18.7722,0.3203
18.775,0.4377
18.7778,0.535
18.7806,0.6143
18.7833,0.679
18.7861,0.7329
18.7889,0.7874
18.7917,0.7898
18.7944,0.81
18.7972,0.7793
18.8,0.7454
18.8028,0.7078
18.8056,0.6482
18.8083,0.5517
18.8111,0.46
18.8139,0.3668
18.8167,0.2564
18.8194,0.1473
18.8222,0.0276
18.825,-0.0428
18.8278,-0.0471
18.8306,-0.0655
18.8333,-0.0932
18.8361,-0.1037
18.8389,-0.1064
18.8417,-0.1192
18.8444,-0.1154
18.8472,-0.1203
18.85,-0.1235
18.8528,-0.0782
18.8556,-0.0478
18.8583,-0.0476
18.8611,-0.0145
18.8639,-0.004
18.8667,-0.0149
18.8694,-0.0108
18.8722,0.0003
18.875,-0.0143
18.8778,0.006
18.8806,0.0092
18.8833,0.0042
18.8861,0.0034
18.8889,0.0058
18.8917,0.0046
18.8944,0.0059
18.8972,-0.0124
18.9,-0.0095
18.9028,-0.0122
18.9056,0.0046
18.9083,-0.025
18.9111,0.0065
18.9139,-0.0066
18.9167,-0.0159
18.9194,0.0107
18.9222,-0.0144
18.925,0.0037
18.9278,-0.0105
18.9306,-0.0182
18.9333,0.0039
18.9361,0.0072
18.9389,-0.0049
18.9417,0.007
18.9444,0.0248
18.9472,0.0049
18.95,0.0042
18.9528,0.0122
18.9556,-0.0035
18.9583,0.0061
18.9611,0.0009
18.9639,0.0021
18.9667,0.0181
18.9694,0.0156
18.9722,0.0423
18.975,0.0357
18.9778,0.0529
18.9806,0.0502
18.9833,0.0524
18.9861,0.0633
18.9889,0.0815
18.9917,0.0621
18.9944,0.0839
18.9972,0.0633
19.0,0.0801
19.0028,0.0904
19.0056,0.1087
19.0083,0.1164
19.0111,0.0924
19.0139,0.1302
19.0167,0.1235
19.0194,0.1363
19.0222,0.1211
19.025,0.1292
19.0278,0.142
19.0306,0.1265
19.0333,0.125
19.0361,0.1372
19.0389,0.1254
19.0417,0.1424
19.0444,0.1662
19.0472,0.1439
19.05,0.1618
19.0528,0.1483
19.0556,0.1577
19.0583,0.1643
19.0611,0.145
19.0639,0.1408
19.0667,0.1685
19.0694,0.1415
19.0722,0.1353
19.075,0.1389
19.0778,0.1376
19.0806,0.1563
19.0833,0.142
19.0861,0.1195
19.0889,0.1222
19.0917,0.1383
19.0944,0.1228
19.0972,0.1007
19.1,0.0961
19.1028,0.1107
19.1056,0.0903
19.1083,0.0974
19.1111,0.0922
19.1139,0.0826
19.1167,0.0697
19.1194,0.0809
19.1222,0.08
19.125,0.0572
19.1278,0.0617
19.1306,0.0566
19.1333,0.0655
19.1361,0.0456
19.1389,0.0538
19.1417,0.0375
19.1444,0.033
19.1472,0.0297
19.15,0.0232
19.1528,-0.0083
19.1556,-0.0145
19.1583,0.0199
19.1611,0.0008
19.1639,0.0119
19.1667,0.0001
19.1694,-0.0148
19.1722,0.0074
19.175,0.0018
19.1778,-0.0125
19.1806,-0.0152
19.1833,-0.0112
19.1861,0.0112
19.1889,-0.0036
19.1917,-0.0186
19.1944,-0.0192
19.1972,-0.0084
19.2,0.0088
19.2028,0.0078
19.2056,-0.0108
19.2083,0.0119
19.2111,-0.0097
19.2139,0.0094
19.2167,0.0012
19.2194,0.019
19.2222,-0.0093
19.225,0.0046
19.2278,0.002
19.2306,-0.0005
19.2333,0.0127
19.2361,0.0093
19.2389,0.0099
19.2417,0.0163
19.2444,0.0125
19.2472,-0.0104
19.25,-0.0119
19.2528,-0.001
19.2556,0.012
19.2583,-0.0033
19.2611,-0.0165
19.2639,0.0126
19.2667,0.0189
19.2694,0.0128
19.2722,-0.0043
19.275,-0.0134
19.2778,0.003
19.2806,-0.0086
19.2833,-0.0037
19.2861,-0.0015
19.2889,0.0087
19.2917,-0.0044
19.2944,0.0005
19.2972,-0.0019
19.3,-0.005
19.3028,0.0097
19.3056,0.0055
19.3083,-0.0064
19.3111,-0.0034
19.3139,0.0371
19.3167,-0.0051
19.3194,-0.0093
19.3222,-0.0191
19.325,0.0008
19.3278,-0.0216
19.3306,-0.0075
19.3333,0.0073
19.3361,0.0033
19.3389,-0.0046
19.3417,0.0051
19.3444,0.0142
19.3472,-0.0096
19.35,-0.014
19.3528,0.0143
19.3556,0.0068
19.3583,-0.0137
19.3611,0.0008
19.3639,0.0123
19.3667,-0.0025
19.3694,0.006
19.3722,-0.0159
19.375,-0.0068
19.3778,-0.0149
19.3806,0.0151
19.3833,-0.0133
19.3861,0.0004
19.3889,0.0033
19.3917,-0.0105
19.3944,-0.0189
19.3972,-0.011
19.4,0.0189
19.4028,-0.0063
19.4056,-0.0062
19.4083,-0.0131
19.4111,0.0006
19.4139,-0.0057
19.4167,0.023
19.4194,0.009
19.4222,0.005
19.425,0.0022
19.4278,-0.0105
19.4306,0.019
19.4333,0.0114
19.4361,0.0082
19.4389,-0.0086
19.4417,-0.0073
19.4444,-0.0198
19.4472,-0.0122
19.45,-0.0001
19.4528,0.0033
19.4556,0.0127
19.4583,0.0136
19.4611,-0.0205
19.4639,0.0219
19.4667,-0.0171
19.4694,0.0018
19.4722,-0.0156
19.475,-0.0022
19.4778,-0.0098
19.4806,-0.005
19.4833,0.0159
19.4861,-0.0088
19.4889,-0.0044
19.4917,-0.0033
19.4944,-0.0055
19.4972,-0.007
19.5,0.0034
19.5028,0.0054
19.5056,0.0089
19.5083,-0.0126
19.5111,-0.0017
19.5139,-0.0105
19.5167,-0.0024
19.5194,-0.0022
19.5222,0.012
19.525,-0.0082
19.5278,-0.0078
19.5306,0.0001
19.5333,0.0011
19.5361,0.0016
19.5389,0.0135
19.5417,0.0219
19.5444,0.0186
19.5472,0.0404
19.55,0.0494
19.5528,0.0264
19.5556,0.041
19.5583,0.0466
19.5611,0.0514
19.5639,0.0635
19.5667,0.0488
19.5694,0.0774
19.5722,0.0753
19.575,0.0746
19.5778,0.0647
19.5806,0.0464
19.5833,0.0649
19.5861,0.0771
19.5889,0.0731
19.5917,0.0778
19.5944,0.081
19.5972,0.0685
19.6,0.0831
19.6028,0.0782
19.6056,0.0763
19.6083,0.0795
19.6111,0.0658
19.6139,0.0739
19.6167,0.079
19.6194,0.0709
19.6222,0.0715
19.625,0.066
19.6278,0.0689
19.6306,0.0917
19.6333,0.0694
19.6361,0.0608
19.6389,0.0586
19.6417,0.049
19.6444,0.0498
19.6472,0.0491
19.65,0.0449
19.6528,0.0425
19.6556,0.0455
19.6583,0.0322
19.6611,0.031
19.6639,0.0054
19.6667,0.0204
19.6694,0.0092
19.6722,-0.0098
19.675,0.0178
19.6778,0.0065
19.6806,-0.0127
19.6833,0.0061
19.6861,0.0105
19.6889,0.0037
19.6917,-0.0019
19.6944,-0.0101
19.6972,-0.0132
19.7,0.0099
19.7028,-0.0032
19.7056,-0.0036
19.7083,0.0127
19.7111,0.0066
19.7139,-0.0071
19.7167,-0.0012
19.7194,-0.0007
19.7222,-0.0013
19.725,0.0028
19.7278,0.0089
19.7306,-0.0035
19.7333,0.0024
19.7361,0.0083
19.7389,-0.0069
19.7417,-0.0278
19.7444,-0.0241
19.7472,-0.0334
19.75,-0.0487
19.7528,-0.0333
19.7556,-0.0127
19.7583,0.0129
19.7611,0.1332
19.7639,0.2672
19.7667,0.339
19.7694,0.4398
19.7722,0.5258
19.775,0.6025
19.7778,0.674
19.7806,0.7445
19.7833,0.7711
19.7861,0.7952
19.7889,0.7884
19.7917,0.7753
19.7944,0.7676
19.7972,0.7515
19.8,0.6874
19.8028,0.6144
19.8056,0.5243
19.8083,0.4575
19.8111,0.3148
19.8139,0.2304
19.8167,0.1378
19.8194,0.0117
19.8222,-0.0179
19.825,-0.0435
19.8278,-0.0784
19.8306,-0.0835
19.8333,-0.1225
19.8361,-0.0969
19.8389,-0.1278
19.8417,-0.1228
19.8444,-0.1284
19.8472,-0.1133
19.85,-0.0854
19.8528,-0.0674
19.8556,-0.0433
19.8583,-0.018
19.8611,0.0091
19.8639,-0.0311
19.8667,0.0224
19.8694,-0.0009
19.8722,0.0062
19.875,0.0206
19.8778,0.0009
19.8806,0.0042
19.8833,0.0016
19.8861,-0.0118
19.8889,-0.0041
19.8917,-0.0153
19.8944,0.0125
19.8972,0.0047
19.9,-0.009
19.9028,-0.0007
19.9056,-0.0102
19.9083,-0.0002
19.9111,-0.0023
19.9139,-0.0051
19.9167,0.0037
19.9194,0.0112
19.9222,0.0079
19.925,0.0128
19.9278,0.012
19.9306,0.0021
19.9333,0.0041
19.9361,0.0014
19.9389,-0.0043
19.9417,0.0112
19.9444,0.0119
19.9472,-0.0071
19.95,-0.0101
19.9528,-0.0159
19.9556,-0.0171
19.9583,0.0183
19.9611,0.0103
19.9639,0.0137
19.9667,0.0204
19.9694,0.0117
19.9722,0.0148
19.975,0.0207
19.9778,0.0117
19.9806,0.023
19.9833,0.043
19.9861,0.0386
19.9889,0.0415
19.9917,0.078
19.9944,0.0633
19.9972,0.0615
20.0,0.0761
20.0028,0.0822
20.0056,0.0647
20.0083,0.0944
20.0111,0.1086
20.0139,0.0971
20.0167,0.0924
20.0194,0.1009
20.0222,0.1125
20.025,0.1189
20.0278,0.1111
20.0306,0.1195
20.0333,0.1433
20.0361,0.1241
20.0389,0.1294
20.0417,0.1319
20.0444,0.1392
20.0472,0.1504
20.05,0.1445
20.0528,0.1352
20.0556,0.1623
20.0583,0.1552
20.0611,0.1601
20.0639,0.1616
20.0667,0.1561
20.0694,0.1443
20.0722,0.1695
20.075,0.142
20.0778,0.1395
20.0806,0.1629
20.0833,0.1496
20.0861,0.1501
20.0889,0.1525
20.0917,0.136
20.0944,0.1441
20.0972,0.135
20.1,0.1451
20.1028,0.1348
20.1056,0.1407
20.1083,0.1013
20.1111,0.117
20.1139,0.1153
20.1167,0.1057
20.1194,0.1115
20.1222,0.1201
20.125,0.0828
20.1278,0.0938
20.1306,0.0942
20.1333,0.0672
20.1361,0.0881
20.1389,0.0732
20.1417,0.086
20.1444,0.0416
20.1472,0.0453
20.15,0.0583
20.1528,0.0542
20.1556,0.0309
20.1583,0.0218
20.1611,0.0356
20.1639,0.0085
20.1667,-0.0065
20.1694,0.0107
20.1722,0.0074
20.175,-0.0044
20.1778,0.0175
20.1806,0.009
20.1833,0.0129
20.1861,-0.0055
20.1889,-0.004
20.1917,-0.0025
20.1944,-0.0153
20.1972,-0.0007
20.2,0.0006
20.2028,0.0082
20.2056,0.0087
20.2083,-0.0033
20.2111,-0.0035
20.2139,-0.0026
20.2167,0.004
20.2194,0.0048
20.2222,-0.0101
20.225,0.0033
20.2278,-0.0025
20.2306,-0.0096
20.2333,0.0114
20.2361,-0.0128
20.2389,0.0114
20.2417,0.005
20.2444,0.0008
20.2472,0.0117
20.25,-0.0087
20.2528,0.0006
20.2556,0.0253
20.2583,-0.0181
20.2611,-0.0138
20.2639,0.0039
20.2667,0.0062
20.2694,0.016
20.2722,-0.0188
20.275,0.0042
20.2778,0.0175
20.2806,-0.0137
20.2833,0.0124
20.2861,0.0028
20.2889,0.0047
20.2917,0.0181
20.2944,0.0041
20.2972,0.0019
20.3,-0.004
20.3028,-0.0018
20.3056,0.0124
20.3083,-0.006
20.3111,0.0006
20.3139,0.0101
20.3167,-0.0113
20.3194,0.0054
20.3222,-0.0047
20.325,-0.0058
20.3278,0.0073
20.3306,0.0188
20.3333,-0.0102
20.3361,-0.0097
20.3389,0.0079
20.3417,0.0194
20.3444,0.0094
20.3472,0.0089
20.35,0.0092
20.3528,-0.0068
20.3556,0.0113
20.3583,0.0047
20.3611,-0.0148
20.3639,0.0067
20.3667,-0.0004
20.3694,-0.0101
20.3722,0.0128
20.375,0.0099
20.3778,0.0126
20.3806,0.004
20.3833,0.0045
20.3861,0.0098
20.3889,-0.0113
20.3917,-0.0116
20.3944,0.0102
20.3972,-0.0012
20.4,0.008
20.4028,0.0068
20.4056,-0.0044
20.4083,0.0009
20.4111,-0.002
20.4139,0.002
20.4167,-0.0042
20.4194,-0.0086
20.4222,0.001
20.425,0.0006
20.4278,0.0042
20.4306,-0.0185
20.4333,0.0106
20.4361,0.0058
20.4389,-0.0093
20.4417,0.0059
20.4444,0.0016
20.4472,-0.0014
20.45,-0.0066
20.4528,0.0015
20.4556,0.0005
20.4583,0.0015
20.4611,-0.0024
20.4639,-0.0006
20.4667,0.0092
20.4694,0.0058
20.4722,0.0105
20.475,-0.0012
20.4778,-0.0067
20.4806,-0.01
20.4833,-0.0117
20.4861,0.0037
20.4889,-0.0137
20.4917,-0.0017
20.4944,0.0049
20.4972,-0.0158
20.5,0.0023
20.5028,0.0161
20.5056,0.0022
20.5083,0.0146
20.5111,0.0055
20.5139,0.015
20.5167,0.0085
20.5194,0.0119
20.5222,0.0101
20.525,-0.0143
20.5278,-0.0024
20.5306,0.0125
20.5333,0.0064
20.5361,0.0013
20.5389,-0.0113
20.5417,0.0167
20.5444,0.0124
20.5472,0.0021
20.55,0.0183
20.5528,-0.0076
20.5556,0.0133
20.5583,0.0165
20.5611,-0.0072
20.5639,0.0121
20.5667,-0.0096
20.5694,0.0015
20.5722,0.0132
20.575,-0.0044
20.5778,0.0178
20.5806,0.0152
20.5833,0.0265
20.5861,0.037
20.5889,0.0484
20.5917,0.0355
20.5944,0.049
20.5972,0.0565
20.6,0.0479
20.6028,0.0667
20.6056,0.045
20.6083,0.0426
20.6111,0.0712
20.6139,0.071
20.6167,0.07
20.6194,0.0803
20.6222,0.0751
20.625,0.0657
20.6278,0.0945
20.6306,0.058
20.6333,0.0753
20.6361,0.08
20.6389,0.0906
20.6417,0.0769
20.6444,0.0761
20.6472,0.0686
20.65,0.0693
20.6528,0.072
20.6556,0.0751
20.6583,0.0902
20.6611,0.0634
20.6639,0.0833
20.6667,0.0807
20.6694,0.0514
20.6722,0.0594
20.675,0.0574
20.6778,0.045
20.6806,0.0592
20.6833,0.0362
20.6861,0.0443
20.6889,0.0544
20.6917,0.0393
20.6944,0.0118
20.6972,0.017
20.7,0.0076
20.7028,0.029
20.7056,0.0103
20.7083,0.0141
20.7111,0.0079
20.7139,0.001
20.7167,-0.0111
20.7194,-0.0107
20.7222,0.0004
20.725,0.0014
20.7278,0.0054
20.7306,0.0033
20.7333,0.0034
20.7361,0.0078
20.7389,0.0188
20.7417,-0.0043
20.7444,-0.0068
20.7472,-0.0091
20.75,0.0049
20.7528,-0.0003
20.7556,0.0199
20.7583,0.0134
20.7611,-0.0148
20.7639,-0.0002
20.7667,0.0167
20.7694,0.0117
20.7722,0.0164
20.775,-0.0032
20.7778,-0.0188
20.7806,-0.0326
20.7833,-0.0468
20.7861,-0.0426
20.7889,-0.0201
20.7917,-0.027
20.7944,-0.0192
20.7972,0.0345
20.8,0.142
20.8028,0.2517
20.8056,0.3518
20.8083,0.4467
20.8111,0.5354
20.8139,0.5982
20.8167,0.6702
20.8194,0.7249
20.8222,0.7845
20.825,0.7915
20.8278,0.7914
20.8306,0.8005
20.8333,0.7594
20.8361,0.7239
20.8389,0.6852
20.8417,0.6082
20.8444,0.5381
20.8472,0.4447
20.85,0.3626
20.8528,0.2533
20.8556,0.1474
20.8583,0.0461
20.8611,-0.018
20.8639,-0.034
20.8667,-0.0695
20.8694,-0.0841
20.8722,-0.0953
20.875,-0.1117
20.8778,-0.1217
20.8806,-0.1089
20.8833,-0.1013
20.8861,-0.0951
20.8889,-0.1031
20.8917,-0.0835
20.8944,-0.0654
20.8972,-0.0159
20.9,-0.0106
20.9028,-0.0175
20.9056,0.0009
20.9083,0.0003
20.9111,0.0061
20.9139,0.0141
20.9167,-0.0115
20.9194,-0.0069
20.9222,0.0061
20.925,0.006
20.9278,0.0082
20.9306,0.0202
20.9333,-0.0013
20.9361,0.0063
20.9389,-0.0015
20.9417,0.0217
20.9444,0.0283
20.9472,-0.0145
20.95,0.0014
20.9528,-0.0018
20.9556,0.0038
20.9583,0.0113
20.9611,0.005
20.9639,0.0213
20.9667,0.0129
20.9694,0.0056
20.9722,0.0184
20.975,-0.0029
20.9778,0.0083
20.9806,0.0066
20.9833,0.0108
20.9861,0.0142
20.9889,0.0123
20.9917,-0.0055
20.9944,0.0097
20.9972,-0.003
21.0,-0.012
21.0028,-0.0126
21.0056,-0.001
21.0083,0.0016
21.0111,0.0269
21.0139,0.0157
21.0167,0.0201
21.0194,0.0242
21.0222,0.0454
21.025,0.0301
21.0278,0.0537
21.0306,0.0538
21.0333,0.0417
21.0361,0.0906
21.0389,0.0703
21.0417,0.0649
21.0444,0.0854
21.0472,0.0779
21.05,0.1035
21.0528,0.1066
21.0556,0.0926
21.0583,0.1083
21.0611,0.1182
21.0639,0.1247
21.0667,0.1158
21.0694,0.1229
21.0722,0.1255
21.075,0.1358
21.0778,0.1245
21.0806,0.1369
21.0833,0.1387
21.0861,0.1415
21.0889,0.1373
21.0917,0.1299
21.0944,0.1436
21.0972,0.1366
21.1,0.1417
21.1028,0.1317
21.1056,0.1437
21.1083,0.1507
21.1111,0.156
21.1139,0.157
21.1167,0.1605
21.1194,0.1518
21.1222,0.158
21.125,0.1525
21.1278,0.1388
21.1306,0.1484
21.1333,0.1407
21.1361,0.1421
21.1389,0.143
21.1417,0.116
21.1444,0.1289
21.1472,0.1338
21.15,0.1376
21.1528,0.1257
21.1556,0.1184
21.1583,0.1037
21.1611,0.1228
21.1639,0.1145
21.1667,0.0925
21.1694,0.0949
21.1722,0.0889
21.175,0.0829
21.1778,0.074
21.1806,0.0772
21.1833,0.0717
21.1861,0.0666
21.1889,0.0551
21.1917,0.0483
21.1944,0.0466
21.1972,0.0551
21.2,0.0364
21.2028,0.0184
21.2056,0.0331
21.2083,0.025
21.2111,0.0097
21.2139,0.0096
21.2167,-0.0061
21.2194,0.0054
21.2222,-0.0123
21.225,-0.0002
21.2278,-0.0158
21.2306,0.006
21.2333,-0.0126
21.2361,0.0166
21.2389,0.0034
21.2417,-0.009
21.2444,-0.0074
21.2472,0.0021
21.25,0.0003
21.2528,-0.0138
21.2556,-0.0113
21.2583,-0.0096
21.2611,-0.0086
21.2639,-0.0194
21.2667,0.0101
21.2694,0.0022
21.2722,-0.0012
21.275,-0.0078
21.2778,0.0039
21.2806,-0.0088
21.2833,0.0048
21.2861,0.0186
21.2889,-0.0061
21.2917,0.002
21.2944,0.0034
21.2972,-0.005
21.3,0.0033
21.3028,0.0145
21.3056,-0.0089
21.3083,-0.0196
21.3111,0.0078
21.3139,-0.0006
21.3167,-0.0086
21.3194,-0.02
21.3222,0.0295
21.325,-0.0265
21.3278,0.0211
21.3306,0.0036
21.3333,0.0002
21.3361,-0.0025
21.3389,0.0112
21.3417,0.0179
21.3444,0.01
21.3472,-0.0041
21.35,0.0059
21.3528,-0.001
21.3556,0.0038
21.3583,-0.008
21.3611,-0.0067
21.3639,-0.0005
21.3667,-0.0052
21.3694,-0.0145
21.3722,0.0123
21.375,-0.0049
21.3778,0.0089
21.3806,0.0042
21.3833,0.0162
21.3861,0.0073
21.3889,-0.0037
21.3917,0.007
21.3944,-0.004
21.3972,0.0009
21.4,-0.0196
21.4028,-0.0221
21.4056,-0.0148
21.4083,0.0114
21.4111,-0.0042
21.4139,-0.0042
21.4167,-0.0049
21.4194,-0.0089
21.4222,-0.0113
21.425,0.0034
21.4278,0.0193
21.4306,0.0012
21.4333,0.0018
21.4361,0.0038
21.4389,0.0006
21.4417,0.0027
21.4444,-0.028
21.4472,0.0123
21.45,-0.0045
21.4528,0.0246
21.4556,0.0071
21.4583,-0.0002
21.4611,0.007
21.4639,0.0042
21.4667,-0.0169
21.4694,-0.0083
21.4722,0.019
21.475,-0.0179
21.4778,-0.0088
21.4806,0.0022
21.4833,0.015
21.4861,-0.0082
21.4889,-0.0141
21.4917,-0.0144
21.4944,-0.0115
21.4972,-0.0064
21.5,-0.0085
21.5028,0.0074
21.5056,-0.0013
21.5083,0.0038
21.5111,-0.0155
21.5139,0.0081
21.5167,0.0075
21.5194,0.0113
21.5222,0.0018
21.525,0.0054
21.5278,-0.0189
21.5306,-0.0006
21.5333,-0.0051
21.5361,0.0001
21.5389,-0.0023
21.5417,0.0251
21.5444,-0.0144
21.5472,0.0076
21.55,0.0048
21.5528,0.0259
21.5556,0.0083
21.5583,0.002
21.5611,0.0098
21.5639,-0.0063
21.5667,-0.0067
21.5694,-0.0144
21.5722,0.0162
21.575,-0.0088
21.5778,-0.0135
21.5806,0.0099
21.5833,-0.0017
21.5861,0.0061
21.5889,0.0061
21.5917,-0.0004
21.5944,0.0017
21.5972,-0.0009
21.6,0.0159
21.6028,0.0061
21.6056,0.0116
21.6083,0.0058
21.6111,-0.0109
21.6139,-0.0067
21.6167,0.0171
21.6194,0.0203
21.6222,0.0179
21.625,0.0093
21.6278,0.0323
21.6306,0.0361
21.6333,0.0296
21.6361,0.0518
21.6389,0.0652
21.6417,0.0374
21.6444,0.0494
21.6472,0.0699
21.65,0.0341
21.6528,0.0517
21.6556,0.0755
21.6583,0.0738
21.6611,0.0734
21.6639,0.0705
21.6667,0.088
21.6694,0.0773
21.6722,0.0782
21.675,0.0775
21.6778,0.0819
21.6806,0.0753
21.6833,0.0945
21.6861,0.0725
21.6889,0.0848
21.6917,0.079
21.6944,0.0828
21.6972,0.0761
21.7,0.08
21.7028,0.0745
21.7056,0.0748
21.7083,0.045
21.7111,0.0633
21.7139,0.0584
21.7167,0.0628
21.7194,0.0306
21.7222,0.056
21.725,0.0431
21.7278,0.0446
21.7306,0.0375
21.7333,0.0313
21.7361,0.0242
21.7389,0.0213
21.7417,0.0193
21.7444,0.0187
21.7472,0.0087
21.75,-0.0069
21.7528,-0.0057
21.7556,-0.0044
21.7583,-0.0187
21.7611,-0.0142
21.7639,-0.0064
21.7667,0.0113
21.7694,-0.0024
21.7722,-0.0069
21.775,-0.001
21.7778,0.0092
21.7806,0.0086
21.7833,-0.0211
21.7861,0.0096
21.7889,-0.0003
21.7917,-0.0044
21.7944,-0.0016
21.7972,0.0134
21.8,-0.0119
21.8028,-0.0134
21.8056,-0.0119
21.8083,-0.0042
21.8111,-0.0283
21.8139,-0.0107
21.8167,-0.0109
21.8194,-0.0193
21.8222,-0.0373
21.825,-0.0443
21.8278,-0.042
21.8306,-0.0122
21.8333,-0.0072
21.8361,0.0393
21.8389,0.1574
21.8417,0.2566
21.8444,0.3765
21.8472,0.4248
21.85,0.5479
21.8528,0.6326
21.8556,0.6761
21.8583,0.7418
21.8611,0.7777
21.8639,0.7927
21.8667,0.7923
21.8694,0.7897
21.8722,0.7536
21.875,0.7197
21.8778,0.6456
21.8806,0.5801
21.8833,0.5081
21.8861,0.3983
21.8889,0.273
21.8917,0.189
21.8944,0.0755
21.8972,0.0044
21.9,-0.0303
21.9028,-0.0358
21.9056,-0.0898
21.9083,-0.1008
21.9111,-0.1151
21.9139,-0.1341
21.9167,-0.1138
21.9194,-0.1108
21.9222,-0.1057
21.925,-0.1144
21.9278,-0.0868
21.9306,-0.0433
21.9333,-0.0341
21.9361,-0.011
21.9389,-0.016
21.9417,0.0128
21.9444,0.002
21.9472,0.0045
21.95,-0.0004
21.9528,-0.0023
21.9556,0.0111
21.9583,0.0046
21.9611,0.0102
21.9639,0.0047
21.9667,0.0042
21.9694,0.0039
21.9722,-0.0008
21.975,-0.0164
21.9778,0.015
21.9806,0.0205
21.9833,0.0099
21.9861,0.0145
21.9889,-0.0012
21.9917,0.0009
21.9944,0.0121
21.9972,-0.0055
22.0,0.005
22.0028,-0.0129
22.0056,0.0097
22.0083,-0.0132
22.0111,-0.0063
22.0139,-0.0025
22.0167,0.0002
22.0194,0.0114
22.0222,0.0026
22.025,-0.0116
22.0278,0.0035
22.0306,0.0175
22.0333,-0.0024
22.0361,-0.008
22.0389,-0.0084
22.0417,0.0055
22.0444,0.0157
22.0472,0.0175
22.05,0.0405
22.0528,0.0463
22.0556,0.046
22.0583,0.0551
22.0611,0.0529
22.0639,0.0637
22.0667,0.0659
22.0694,0.0646
22.0722,0.0616
22.075,0.0866
22.0778,0.0708
22.0806,0.0918
22.0833,0.0931
22.0861,0.1121
22.0889,0.0998
22.0917,0.1143
22.0944,0.1094
22.0972,0.1062
22.1,0.1154
22.1028,0.1198
22.1056,0.1377
22.1083,0.1167
22.1111,0.1446
22.1139,0.1384
22.1167,0.1453
22.1194,0.1442
22.1222,0.1385
22.125,0.1272
22.1278,0.1422
22.1306,0.1427
22.1333,0.1453
22.1361,0.14
22.1389,0.1493
22.1417,0.1415
22.1444,0.1569
22.1472,0.1489
22.15,0.1457
22.1528,0.145
22.1556,0.164
22.1583,0.1509
22.1611,0.1399
22.1639,0.1343
22.1667,0.1375
22.1694,0.1348
22.1722,0.1263
22.175,0.1444
22.1778,0.1363
22.1806,0.1247
22.1833,0.1046
22.1861,0.1179
22.1889,0.1193
22.1917,0.092
22.1944,0.1067
22.1972,0.0862
22.2,0.0802
22.2028,0.0879
22.2056,0.0875
22.2083,0.0654
22.2111,0.0799
22.2139,0.0582
22.2167,0.0474
22.2194,0.0457
22.2222,0.0432
22.225,0.0283
22.2278,0.0407
22.2306,0.0234
22.2333,0.0353
22.2361,0.0156
22.2389,0.015
22.2417,0.0114
22.2444,0.0136
22.2472,0.0033
22.25,-0.0062
22.2528,-0.0007
22.2556,-0.0043
22.2583,0.0106
22.2611,0.0078
22.2639,-0.0004
22.2667,-0.0071
22.2694,-0.0222
22.2722,0.0153
22.275,-0.0006
22.2778,-0.007
22.2806,0.005
22.2833,-0.0013
22.2861,-0.0129
22.2889,-0.0065
22.2917,0.0084
22.2944,-0.0055
22.2972,0.0039
22.3,0.0008
22.3028,-0.0121
22.3056,-0.0142
22.3083,0.0058
22.3111,-0.0094
22.3139,-0.005
22.3167,-0.0029
22.3194,0.0006
22.3222,-0.032
22.325,-0.0054
22.3278,0.0003
22.3306,0.0014
22.3333,0.0057
22.3361,-0.0112
22.3389,0.0092
22.3417,-0.0087
22.3444,0.0057
22.3472,-0.001
22.35,-0.0088
22.3528,-0.0062
22.3556,0.0014
22.3583,0.0025
22.3611,0.0019
22.3639,-0.0067
22.3667,0.0153
22.3694,0.0022
22.3722,0.0103
22.375,0.0146
22.3778,0.0116
22.3806,0.0022
22.3833,0.0192
22.3861,-0.0108
22.3889,0.0119
22.3917,-0.0143
22.3944,-0.0143
22.3972,0.0007
22.4,-0.0108
22.4028,0.0063
22.4056,-0.0102
22.4083,0.0094
22.4111,0.0046
22.4139,0.0015
22.4167,-0.0228
22.4194,-0.0025
22.4222,-0.0066
22.425,0.0011
22.4278,-0.0039
22.4306,-0.0101
22.4333,0.0078
22.4361,-0.0038
22.4389,0.0113
22.4417,-0.0091
22.4444,-0.0032
22.4472,-0.0045
22.45,0.0101
22.4528,0.0091
22.4556,-0.0017
22.4583,-0.0016
22.4611,0.0126
22.4639,-0.0004
22.4667,-0.0085
22.4694,0.0095
22.4722,0.0053
22.475,-0.0002
22.4778,0.014
22.4806,0.0119
22.4833,0.0168
22.4861,-0.0248
22.4889,0.0003
22.4917,0.0135
22.4944,-0.003
22.4972,0.0088
22.5,0.0044
22.5028,-0.0134
22.5056,-0.0067
22.5083,-0.0028
22.5111,-0.0025
22.5139,-0.0059
22.5167,-0.0108
22.5194,0.011
22.5222,-0.002
22.525,-0.0045
22.5278,-0.02
22.5306,-0.0134
22.5333,0.006
22.5361,0.0033
22.5389,0.0089
22.5417,0.003
22.5444,0.0033
22.5472,-0.0006
22.55,-0.0046
22.5528,-0.0029
22.5556,-0.0248
22.5583,-0.0006
22.5611,-0.0152
22.5639,0.0021
22.5667,-0.0108
22.5694,-0.0042
22.5722,0.0144
22.575,-0.0013
22.5778,-0.0084
22.5806,0.0244
22.5833,0.0135
22.5861,-0.0075
22.5889,-0.019
22.5917,-0.018
22.5944,-0.0057
22.5972,-0.0005
22.6,0.0073
22.6028,-0.0035
22.6056,-0.0007
22.6083,0.0005
22.6111,0.0012
22.6139,0.0095
22.6167,-0.0019
22.6194,0.0015
22.6222,0.0047
22.625,0.0192
22.6278,-0.0148
22.6306,-0.0065
22.6333,0.014
22.6361,0.0082
22.6389,0.0274
22.6417,0.0189
22.6444,0.0379
22.6472,0.0437
22.65,0.0409
22.6528,0.038
22.6556,0.0448
22.6583,0.0486
22.6611,0.0642
22.6639,0.0636
22.6667,0.0657
22.6694,0.0578
22.6722,0.0713
22.675,0.0818
22.6778,0.0647
22.6806,0.0801
22.6833,0.0865
22.6861,0.0728
22.6889,0.0863
22.6917,0.0656
22.6944,0.0807
22.6972,0.0853
22.7,0.0765
22.7028,0.0605
22.7056,0.0699
22.7083,0.0796
22.7111,0.075
22.7139,0.0773
22.7167,0.0498
22.7194,0.0747
22.7222,0.0689
22.725,0.0697
22.7278,0.0539
22.7306,0.0602
22.7333,0.0456
22.7361,0.058
22.7389,0.0558
22.7417,0.0685
22.7444,0.0383
22.7472,0.0623
22.75,0.0263
22.7528,0.0272
22.7556,0.0275
22.7583,0.0219
22.7611,0.0012
22.7639,0.0036
22.7667,-0.0054
22.7694,0.001
22.7722,0.0112
22.775,0.0032
22.7778,0.0139
22.7806,0.0109
22.7833,-0.0082
22.7861,0.0043
22.7889,0.0033
22.7917,-0.0242
22.7944,0.0067
22.7972,0.0073
22.8,0.0058
22.8028,0.0085
22.8056,0.0061
22.8083,0.0046
22.8111,0.0019
22.8139,-0.004
22.8167,0.0337
22.8194,-0.0034
22.8222,-0.0031
22.825,-0.0027
22.8278,-0.0236
22.8306,-0.0143
22.8333,-0.0306
22.8361,-0.0303
